TimeStep,Temp,PotEnergy,TotEnergy,MeanSqDisp
0,3.001001e-01,-3.824684e-04,-3.414562e-04,4.743416e-03
1,3.003998e-01,-3.825056e-04,-3.414524e-04,9.488416e-03
2,3.008974e-01,-3.825673e-04,-3.414462e-04,1.423657e-02
3,3.015898e-01,-3.826532e-04,-3.414374e-04,1.898942e-02
4,3.024729e-01,-3.827626e-04,-3.414261e-04,2.374849e-02
5,3.035408e-01,-3.828947e-04,-3.414123e-04,2.851525e-02
6,3.047862e-01,-3.830485e-04,-3.413959e-04,3.329109e-02
7,3.061997e-01,-3.832228e-04,-3.413770e-04,3.807735e-02
8,3.077697e-01,-3.834158e-04,-3.413554e-04,4.287526e-02
9,3.094822e-01,-3.836257e-04,-3.413313e-04,4.768595e-02
10,3.113200e-01,-3.838502e-04,-3.413046e-04,5.251040e-02
11,3.132624e-01,-3.840864e-04,-3.412754e-04,5.734946e-02
12,3.152849e-01,-3.843312e-04,-3.412437e-04,6.220377e-02
13,3.173584e-01,-3.845806e-04,-3.412098e-04,6.707376e-02
14,3.194486e-01,-3.848303e-04,-3.411739e-04,7.195960e-02
15,3.215157e-01,-3.850754e-04,-3.411364e-04,7.686117e-02
16,3.235139e-01,-3.853100e-04,-3.410980e-04,8.177804e-02
17,3.253914e-01,-3.855278e-04,-3.410592e-04,8.670936e-02
18,3.270904e-01,-3.857213e-04,-3.410206e-04,9.165385e-02
19,3.285480e-01,-3.858824e-04,-3.409825e-04,9.660975e-02
20,3.296978e-01,-3.860026e-04,-3.409455e-04,1.015748e-01
21,3.304725e-01,-3.860731e-04,-3.409101e-04,1.065460e-01
22,3.308071e-01,-3.860851e-04,-3.408765e-04,1.115199e-01
23,3.306433e-01,-3.860312e-04,-3.408449e-04,1.164923e-01
24,3.299347e-01,-3.859053e-04,-3.408158e-04,1.214584e-01
25,3.286514e-01,-3.857032e-04,-3.407892e-04,1.264127e-01
26,3.267845e-01,-3.854240e-04,-3.407650e-04,1.313492e-01
27,3.243494e-01,-3.850697e-04,-3.407435e-04,1.362615e-01
28,3.213871e-01,-3.846460e-04,-3.407247e-04,1.411426e-01
29,3.179639e-01,-3.841619e-04,-3.407084e-04,1.459855e-01
30,3.141689e-01,-3.836294e-04,-3.406945e-04,1.507831e-01
31,3.101091e-01,-3.830631e-04,-3.406830e-04,1.555284e-01
32,3.059034e-01,-3.824792e-04,-3.406739e-04,1.602147e-01
33,3.016760e-01,-3.818946e-04,-3.406670e-04,1.648360e-01
34,2.975500e-01,-3.813261e-04,-3.406623e-04,1.693866e-01
35,2.936415e-01,-3.807894e-04,-3.406598e-04,1.738616e-01
36,2.900549e-01,-3.802987e-04,-3.406593e-04,1.782572e-01
37,2.868795e-01,-3.798663e-04,-3.406608e-04,1.825700e-01
38,2.841870e-01,-3.795014e-04,-3.406639e-04,1.867980e-01
39,2.820303e-01,-3.792114e-04,-3.406686e-04,1.909398e-01
40,2.804424e-01,-3.790004e-04,-3.406746e-04,1.949949e-01
41,2.794373e-01,-3.788703e-04,-3.406819e-04,1.989637e-01
42,2.790109e-01,-3.788205e-04,-3.406904e-04,2.028474e-01
43,2.791427e-01,-3.788480e-04,-3.406999e-04,2.066476e-01
44,2.797985e-01,-3.789481e-04,-3.407103e-04,2.103669e-01
45,2.809333e-01,-3.791145e-04,-3.407217e-04,2.140080e-01
46,2.824944e-01,-3.793400e-04,-3.407338e-04,2.175743e-01
47,2.844243e-01,-3.796167e-04,-3.407468e-04,2.210694e-01
48,2.866633e-01,-3.799366e-04,-3.407606e-04,2.244970e-01
49,2.891515e-01,-3.802912e-04,-3.407752e-04,2.278610e-01
50,2.918297e-01,-3.806725e-04,-3.407905e-04,2.311654e-01
51,2.946411e-01,-3.810724e-04,-3.408062e-04,2.344141e-01
52,2.975309e-01,-3.814836e-04,-3.408225e-04,2.376111e-01
53,3.004474e-01,-3.818990e-04,-3.408393e-04,2.407600e-01
54,3.033418e-01,-3.823119e-04,-3.408566e-04,2.438645e-01
55,3.061692e-01,-3.827161e-04,-3.408745e-04,2.469279e-01
56,3.088898e-01,-3.831062e-04,-3.408927e-04,2.499533e-01
57,3.114702e-01,-3.834774e-04,-3.409113e-04,2.529436e-01
58,3.138857e-01,-3.838266e-04,-3.409304e-04,2.559013e-01
59,3.161207e-01,-3.841517e-04,-3.409501e-04,2.588288e-01
60,3.181694e-01,-3.844518e-04,-3.409702e-04,2.617279e-01
61,3.200354e-01,-3.847276e-04,-3.409909e-04,2.646004e-01
62,3.217305e-01,-3.849802e-04,-3.410119e-04,2.674478e-01
63,3.232730e-01,-3.852123e-04,-3.410332e-04,2.702711e-01
64,3.246860e-01,-3.854271e-04,-3.410549e-04,2.730714e-01
65,3.259952e-01,-3.856282e-04,-3.410771e-04,2.758496e-01
66,3.272266e-01,-3.858189e-04,-3.410996e-04,2.786064e-01
67,3.284047e-01,-3.860027e-04,-3.411223e-04,2.813424e-01
68,3.295510e-01,-3.861823e-04,-3.411452e-04,2.840581e-01
69,3.306823e-01,-3.863601e-04,-3.411685e-04,2.867540e-01
70,3.318102e-01,-3.865377e-04,-3.411919e-04,2.894308e-01
71,3.329404e-01,-3.867156e-04,-3.412154e-04,2.920888e-01
72,3.340728e-01,-3.868942e-04,-3.412392e-04,2.947287e-01
73,3.352019e-01,-3.870727e-04,-3.412634e-04,2.973508e-01
74,3.363188e-01,-3.872498e-04,-3.412879e-04,2.999558e-01
75,3.374127e-01,-3.874238e-04,-3.413124e-04,3.025442e-01
76,3.384732e-01,-3.875931e-04,-3.413368e-04,3.051164e-01
77,3.394920e-01,-3.877570e-04,-3.413614e-04,3.076729e-01
78,3.404650e-01,-3.879146e-04,-3.413860e-04,3.102142e-01
79,3.413934e-01,-3.880660e-04,-3.414106e-04,3.127405e-01
80,3.422843e-01,-3.882121e-04,-3.414349e-04,3.152523e-01
81,3.431511e-01,-3.883548e-04,-3.414592e-04,3.177498e-01
82,3.440115e-01,-3.884967e-04,-3.414834e-04,3.202332e-01
83,3.448842e-01,-3.886403e-04,-3.415078e-04,3.227028e-01
84,3.457850e-01,-3.887878e-04,-3.415322e-04,3.251589e-01
85,3.467223e-01,-3.889404e-04,-3.415567e-04,3.276016e-01
86,3.476954e-01,-3.890979e-04,-3.415813e-04,3.300315e-01
87,3.486946e-01,-3.892590e-04,-3.416058e-04,3.324488e-01
88,3.497045e-01,-3.894214e-04,-3.416302e-04,3.348540e-01
89,3.507080e-01,-3.895829e-04,-3.416545e-04,3.372475e-01
90,3.516912e-01,-3.897417e-04,-3.416789e-04,3.396296e-01
91,3.526464e-01,-3.898964e-04,-3.417031e-04,3.420009e-01
92,3.535734e-01,-3.900469e-04,-3.417269e-04,3.443615e-01
93,3.544793e-01,-3.901944e-04,-3.417506e-04,3.467118e-01
94,3.553756e-01,-3.903405e-04,-3.417742e-04,3.490521e-01
95,3.562755e-01,-3.904869e-04,-3.417976e-04,3.513826e-01
96,3.571906e-01,-3.906350e-04,-3.418207e-04,3.537035e-01
97,3.581281e-01,-3.907860e-04,-3.418436e-04,3.560151e-01
98,3.590906e-01,-3.909401e-04,-3.418662e-04,3.583176e-01
99,3.600763e-01,-3.910973e-04,-3.418886e-04,3.606113e-01
100,3.010535e-01,-3.912617e-04,-3.501191e-04,3.626917e-01
101,3.023852e-01,-3.914640e-04,-3.501395e-04,3.647540e-01
102,3.039678e-01,-3.917007e-04,-3.501599e-04,3.667991e-01
103,3.057601e-01,-3.919659e-04,-3.501802e-04,3.688278e-01
104,3.077100e-01,-3.922526e-04,-3.502003e-04,3.708413e-01
105,3.097595e-01,-3.925527e-04,-3.502204e-04,3.728409e-01
106,3.118496e-01,-3.928582e-04,-3.502403e-04,3.748278e-01
107,3.139249e-01,-3.931615e-04,-3.502600e-04,3.768034e-01
108,3.159377e-01,-3.934561e-04,-3.502795e-04,3.787689e-01
109,3.178492e-01,-3.937365e-04,-3.502987e-04,3.807255e-01
110,3.196317e-01,-3.939992e-04,-3.503178e-04,3.826743e-01
111,3.212676e-01,-3.942416e-04,-3.503366e-04,3.846164e-01
112,3.227496e-01,-3.944627e-04,-3.503551e-04,3.865524e-01
113,3.240791e-01,-3.946626e-04,-3.503734e-04,3.884833e-01
114,3.252649e-01,-3.948428e-04,-3.503916e-04,3.904095e-01
115,3.263210e-01,-3.950053e-04,-3.504097e-04,3.923316e-01
116,3.272653e-01,-3.951524e-04,-3.504278e-04,3.942500e-01
117,3.281178e-01,-3.952870e-04,-3.504458e-04,3.961649e-01
118,3.289002e-01,-3.954118e-04,-3.504637e-04,3.980766e-01
119,3.296347e-01,-3.955299e-04,-3.504814e-04,3.999853e-01
120,3.303425e-01,-3.956445e-04,-3.504993e-04,4.018912e-01
121,3.310424e-01,-3.957581e-04,-3.505172e-04,4.037944e-01
122,3.317486e-01,-3.958726e-04,-3.505352e-04,4.056951e-01
123,3.324697e-01,-3.959892e-04,-3.505533e-04,4.075934e-01
124,3.332089e-01,-3.961082e-04,-3.505713e-04,4.094897e-01
125,3.339649e-01,-3.962296e-04,-3.505894e-04,4.113841e-01
126,3.347342e-01,-3.963528e-04,-3.506074e-04,4.132768e-01
127,3.355126e-01,-3.964770e-04,-3.506253e-04,4.151683e-01
128,3.362971e-01,-3.966021e-04,-3.506432e-04,4.170586e-01
129,3.370866e-01,-3.967279e-04,-3.506610e-04,4.189482e-01
130,3.378828e-01,-3.968546e-04,-3.506789e-04,4.208371e-01
131,3.386890e-01,-3.969827e-04,-3.506968e-04,4.227257e-01
132,3.395095e-01,-3.971125e-04,-3.507145e-04,4.246142e-01
133,3.403467e-01,-3.972447e-04,-3.507323e-04,4.265026e-01
134,3.412001e-01,-3.973792e-04,-3.507502e-04,4.283912e-01
135,3.420644e-01,-3.975153e-04,-3.507681e-04,4.302800e-01
136,3.429297e-01,-3.976514e-04,-3.507860e-04,4.321692e-01
137,3.437829e-01,-3.977857e-04,-3.508037e-04,4.340588e-01
138,3.446099e-01,-3.979165e-04,-3.508215e-04,4.359488e-01
139,3.453979e-01,-3.980420e-04,-3.508393e-04,4.378392e-01
140,3.461381e-01,-3.981609e-04,-3.508570e-04,4.397299e-01
141,3.468268e-01,-3.982729e-04,-3.508749e-04,4.416208e-01
142,3.474663e-01,-3.983781e-04,-3.508927e-04,4.435116e-01
143,3.480633e-01,-3.984774e-04,-3.509105e-04,4.454021e-01
144,3.486279e-01,-3.985722e-04,-3.509281e-04,4.472921e-01
145,3.491706e-01,-3.986640e-04,-3.509457e-04,4.491811e-01
146,3.497003e-01,-3.987540e-04,-3.509633e-04,4.510690e-01
147,3.502233e-01,-3.988431e-04,-3.509810e-04,4.529552e-01
148,3.507428e-01,-3.989318e-04,-3.509987e-04,4.548395e-01
149,3.512608e-01,-3.990202e-04,-3.510163e-04,4.567216e-01
150,3.517801e-01,-3.991087e-04,-3.510338e-04,4.586012e-01
151,3.523053e-01,-3.991979e-04,-3.510512e-04,4.604779e-01
152,3.528431e-01,-3.992887e-04,-3.510685e-04,4.623516e-01
153,3.534004e-01,-3.993823e-04,-3.510860e-04,4.642221e-01
154,3.539829e-01,-3.994794e-04,-3.511034e-04,4.660891e-01
155,3.545943e-01,-3.995804e-04,-3.511209e-04,4.679526e-01
156,3.552366e-01,-3.996856e-04,-3.511383e-04,4.698124e-01
157,3.559114e-01,-3.997952e-04,-3.511557e-04,4.716685e-01
158,3.566209e-01,-3.999094e-04,-3.511730e-04,4.735209e-01
159,3.573690e-01,-4.000288e-04,-3.511901e-04,4.753697e-01
160,3.581606e-01,-4.001540e-04,-3.512071e-04,4.772149e-01
161,3.590001e-01,-4.002857e-04,-3.512241e-04,4.790566e-01
162,3.598896e-01,-4.004244e-04,-3.512412e-04,4.808951e-01
163,3.608256e-01,-4.005694e-04,-3.512584e-04,4.827305e-01
164,3.617979e-01,-4.007195e-04,-3.512755e-04,4.845630e-01
165,3.627899e-01,-4.008722e-04,-3.512927e-04,4.863930e-01
166,3.637798e-01,-4.010247e-04,-3.513099e-04,4.882206e-01
167,3.647429e-01,-4.011736e-04,-3.513271e-04,4.900463e-01
168,3.656548e-01,-4.013153e-04,-3.513442e-04,4.918701e-01
169,3.664937e-01,-4.014469e-04,-3.513612e-04,4.936922e-01
170,3.672436e-01,-4.015662e-04,-3.513780e-04,4.955129e-01
171,3.678960e-01,-4.016720e-04,-3.513947e-04,4.973322e-01
172,3.684508e-01,-4.017645e-04,-3.514114e-04,4.991501e-01
173,3.689161e-01,-4.018449e-04,-3.514282e-04,5.009665e-01
174,3.693056e-01,-4.019149e-04,-3.514450e-04,5.027814e-01
175,3.696363e-01,-4.019768e-04,-3.514616e-04,5.045945e-01
176,3.699265e-01,-4.020331e-04,-3.514783e-04,5.064055e-01
177,3.701935e-01,-4.020864e-04,-3.514951e-04,5.082144e-01
178,3.704533e-01,-4.021387e-04,-3.515118e-04,5.100208e-01
179,3.707200e-01,-4.021919e-04,-3.515287e-04,5.118243e-01
180,3.710060e-01,-4.022478e-04,-3.515454e-04,5.136247e-01
181,3.713222e-01,-4.023077e-04,-3.515622e-04,5.154218e-01
182,3.716785e-01,-4.023731e-04,-3.515789e-04,5.172152e-01
183,3.720834e-01,-4.024451e-04,-3.515955e-04,5.190045e-01
184,3.725444e-01,-4.025249e-04,-3.516123e-04,5.207897e-01
185,3.730675e-01,-4.026132e-04,-3.516291e-04,5.225704e-01
186,3.736566e-01,-4.027105e-04,-3.516459e-04,5.243465e-01
187,3.743127e-01,-4.028168e-04,-3.516626e-04,5.261178e-01
188,3.750319e-01,-4.029319e-04,-3.516794e-04,5.278843e-01
189,3.758042e-01,-4.030543e-04,-3.516963e-04,5.296460e-01
190,3.766123e-01,-4.031818e-04,-3.517132e-04,5.314030e-01
191,3.774327e-01,-4.033109e-04,-3.517302e-04,5.331553e-01
192,3.782381e-01,-4.034381e-04,-3.517474e-04,5.349030e-01
193,3.790020e-01,-4.035595e-04,-3.517644e-04,5.366464e-01
194,3.797028e-01,-4.036723e-04,-3.517814e-04,5.383854e-01
195,3.803277e-01,-4.037747e-04,-3.517984e-04,5.401202e-01
196,3.808736e-01,-4.038661e-04,-3.518152e-04,5.418509e-01
197,3.813469e-01,-4.039475e-04,-3.518319e-04,5.435775e-01
198,3.817625e-01,-4.040210e-04,-3.518487e-04,5.453001e-01
199,3.821434e-01,-4.040898e-04,-3.518654e-04,5.470188e-01
200,3.005615e-01,-4.041815e-04,-3.631062e-04,5.485330e-01
201,3.015943e-01,-4.043378e-04,-3.631214e-04,5.500334e-01
202,3.030949e-01,-4.045583e-04,-3.631368e-04,5.515208e-01
203,3.050347e-01,-4.048389e-04,-3.631523e-04,5.529957e-01
204,3.073606e-01,-4.051726e-04,-3.631681e-04,5.544592e-01
205,3.099993e-01,-4.055490e-04,-3.631840e-04,5.559125e-01
206,3.128631e-01,-4.059564e-04,-3.632000e-04,5.573568e-01
207,3.158572e-01,-4.063816e-04,-3.632160e-04,5.587934e-01
208,3.188874e-01,-4.068121e-04,-3.632323e-04,5.602237e-01
209,3.218660e-01,-4.072355e-04,-3.632487e-04,5.616490e-01
210,3.247165e-01,-4.076415e-04,-3.632651e-04,5.630706e-01
211,3.273772e-01,-4.080216e-04,-3.632817e-04,5.644896e-01
212,3.298027e-01,-4.083697e-04,-3.632983e-04,5.659071e-01
213,3.319647e-01,-4.086816e-04,-3.633147e-04,5.673240e-01
214,3.338519e-01,-4.089557e-04,-3.633309e-04,5.687410e-01
215,3.354679e-01,-4.091927e-04,-3.633470e-04,5.701587e-01
216,3.368297e-01,-4.093948e-04,-3.633631e-04,5.715776e-01
217,3.379643e-01,-4.095659e-04,-3.633791e-04,5.729981e-01
218,3.389055e-01,-4.097108e-04,-3.633954e-04,5.744203e-01
219,3.396905e-01,-4.098344e-04,-3.634117e-04,5.758446e-01
220,3.403562e-01,-4.099418e-04,-3.634281e-04,5.772709e-01
221,3.409362e-01,-4.100375e-04,-3.634445e-04,5.786995e-01
222,3.414586e-01,-4.101254e-04,-3.634611e-04,5.801302e-01
223,3.419443e-01,-4.102086e-04,-3.634778e-04,5.815631e-01
224,3.424071e-01,-4.102887e-04,-3.634947e-04,5.829981e-01
225,3.428554e-01,-4.103670e-04,-3.635117e-04,5.844353e-01
226,3.432947e-01,-4.104440e-04,-3.635287e-04,5.858744e-01
227,3.437302e-01,-4.105204e-04,-3.635456e-04,5.873154e-01
228,3.441683e-01,-4.105971e-04,-3.635625e-04,5.887581e-01
229,3.446168e-01,-4.106753e-04,-3.635794e-04,5.902024e-01
230,3.450846e-01,-4.107561e-04,-3.635963e-04,5.916482e-01
231,3.455809e-01,-4.108408e-04,-3.636131e-04,5.930955e-01
232,3.461142e-01,-4.109307e-04,-3.636301e-04,5.945441e-01
233,3.466912e-01,-4.110267e-04,-3.636473e-04,5.959941e-01
234,3.473154e-01,-4.111292e-04,-3.636645e-04,5.974455e-01
235,3.479858e-01,-4.112383e-04,-3.636819e-04,5.988983e-01
236,3.486963e-01,-4.113529e-04,-3.636994e-04,6.003525e-01
237,3.494367e-01,-4.114715e-04,-3.637169e-04,6.018082e-01
238,3.501949e-01,-4.115926e-04,-3.637344e-04,6.032654e-01
239,3.509588e-01,-4.117146e-04,-3.637520e-04,6.047243e-01
240,3.517192e-01,-4.118362e-04,-3.637697e-04,6.061848e-01
241,3.524714e-01,-4.119569e-04,-3.637875e-04,6.076470e-01
242,3.532153e-01,-4.120765e-04,-3.638055e-04,6.091110e-01
243,3.539550e-01,-4.121956e-04,-3.638235e-04,6.105768e-01
244,3.546974e-01,-4.123150e-04,-3.638414e-04,6.120444e-01
245,3.554502e-01,-4.124359e-04,-3.638595e-04,6.135140e-01
246,3.562207e-01,-4.125592e-04,-3.638775e-04,6.149855e-01
247,3.570131e-01,-4.126857e-04,-3.638957e-04,6.164588e-01
248,3.578268e-01,-4.128153e-04,-3.639141e-04,6.179341e-01
249,3.586555e-01,-4.129471e-04,-3.639326e-04,6.194113e-01
250,3.594870e-01,-4.130794e-04,-3.639513e-04,6.208904e-01
251,3.603047e-01,-4.132100e-04,-3.639701e-04,6.223713e-01
252,3.610896e-01,-4.133363e-04,-3.639892e-04,6.238539e-01
253,3.618224e-01,-4.134555e-04,-3.640082e-04,6.253383e-01
254,3.624851e-01,-4.135651e-04,-3.640272e-04,6.268242e-01
255,3.630631e-01,-4.136630e-04,-3.640462e-04,6.283115e-01
256,3.635468e-01,-4.137481e-04,-3.640651e-04,6.298000e-01
257,3.639343e-01,-4.138200e-04,-3.640841e-04,6.312896e-01
258,3.642328e-01,-4.138800e-04,-3.641033e-04,6.327799e-01
259,3.644602e-01,-4.139303e-04,-3.641225e-04,6.342708e-01
260,3.646442e-01,-4.139747e-04,-3.641418e-04,6.357618e-01
261,3.648197e-01,-4.140180e-04,-3.641611e-04,6.372529e-01
262,3.650227e-01,-4.140652e-04,-3.641806e-04,6.387437e-01
263,3.652837e-01,-4.141207e-04,-3.642004e-04,6.402339e-01
264,3.656200e-01,-4.141866e-04,-3.642203e-04,6.417235e-01
265,3.660321e-01,-4.142632e-04,-3.642406e-04,6.432122e-01
266,3.665039e-01,-4.143481e-04,-3.642611e-04,6.446999e-01
267,3.670082e-01,-4.144375e-04,-3.642815e-04,6.461867e-01
268,3.675137e-01,-4.145270e-04,-3.643019e-04,6.476723e-01
269,3.679915e-01,-4.146127e-04,-3.643223e-04,6.491569e-01
270,3.684191e-01,-4.146914e-04,-3.643425e-04,6.506402e-01
271,3.687832e-01,-4.147614e-04,-3.643628e-04,6.521223e-01
272,3.690803e-01,-4.148224e-04,-3.643832e-04,6.536030e-01
273,3.693177e-01,-4.148755e-04,-3.644039e-04,6.550822e-01
274,3.695115e-01,-4.149226e-04,-3.644245e-04,6.565597e-01
275,3.696851e-01,-4.149668e-04,-3.644450e-04,6.580353e-01
276,3.698652e-01,-4.150118e-04,-3.644654e-04,6.595087e-01
277,3.700794e-01,-4.150615e-04,-3.644857e-04,6.609799e-01
278,3.703533e-01,-4.151191e-04,-3.645060e-04,6.624485e-01
279,3.707088e-01,-4.151879e-04,-3.645261e-04,6.639144e-01
280,3.711630e-01,-4.152702e-04,-3.645464e-04,6.653775e-01
281,3.717263e-01,-4.153674e-04,-3.645667e-04,6.668377e-01
282,3.724007e-01,-4.154798e-04,-3.645869e-04,6.682951e-01
283,3.731796e-01,-4.156066e-04,-3.646073e-04,6.697497e-01
284,3.740480e-01,-4.157457e-04,-3.646276e-04,6.712016e-01
285,3.749843e-01,-4.158939e-04,-3.646479e-04,6.726510e-01
286,3.759625e-01,-4.160478e-04,-3.646680e-04,6.740981e-01
287,3.769546e-01,-4.162036e-04,-3.646883e-04,6.755431e-01
288,3.779334e-01,-4.163575e-04,-3.647084e-04,6.769862e-01
289,3.788753e-01,-4.165063e-04,-3.647285e-04,6.784278e-01
290,3.797623e-01,-4.166476e-04,-3.647486e-04,6.798680e-01
291,3.805829e-01,-4.167797e-04,-3.647686e-04,6.813070e-01
292,3.813305e-01,-4.169018e-04,-3.647885e-04,6.827449e-01
293,3.820024e-01,-4.170134e-04,-3.648082e-04,6.841819e-01
294,3.825991e-01,-4.171144e-04,-3.648278e-04,6.856179e-01
295,3.831247e-01,-4.172056e-04,-3.648471e-04,6.870531e-01
296,3.835890e-01,-4.172883e-04,-3.648663e-04,6.884872e-01
297,3.840081e-01,-4.173646e-04,-3.648854e-04,6.899203e-01
298,3.844028e-01,-4.174375e-04,-3.649043e-04,6.913523e-01
299,3.847928e-01,-4.175099e-04,-3.649234e-04,6.927830e-01
300,3.006057e-01,-4.176098e-04,-3.765285e-04,6.940406e-01
301,3.017172e-01,-4.177793e-04,-3.765461e-04,6.952884e-01
302,3.032935e-01,-4.180127e-04,-3.765641e-04,6.965267e-01
303,3.052679e-01,-4.183007e-04,-3.765822e-04,6.977558e-01
304,3.075590e-01,-4.186320e-04,-3.766004e-04,6.989764e-01
305,3.100810e-01,-4.189947e-04,-3.766185e-04,7.001894e-01
306,3.127518e-01,-4.193778e-04,-3.766366e-04,7.013956e-01
307,3.154989e-01,-4.197715e-04,-3.766549e-04,7.025958e-01
308,3.182619e-01,-4.201674e-04,-3.766732e-04,7.037911e-01
309,3.209925e-01,-4.205590e-04,-3.766916e-04,7.049823e-01
310,3.236518e-01,-4.209409e-04,-3.767100e-04,7.061702e-01
311,3.262079e-01,-4.213087e-04,-3.767285e-04,7.073558e-01
312,3.286325e-01,-4.216586e-04,-3.767471e-04,7.085397e-01
313,3.308992e-01,-4.219869e-04,-3.767656e-04,7.097227e-01
314,3.329834e-01,-4.222905e-04,-3.767844e-04,7.109055e-01
315,3.348627e-01,-4.225663e-04,-3.768033e-04,7.120885e-01
316,3.365190e-01,-4.228114e-04,-3.768221e-04,7.132724e-01
317,3.379392e-01,-4.230244e-04,-3.768410e-04,7.144574e-01
318,3.391180e-01,-4.232044e-04,-3.768599e-04,7.156438e-01
319,3.400587e-01,-4.233519e-04,-3.768789e-04,7.168317e-01
320,3.407753e-01,-4.234689e-04,-3.768980e-04,7.180213e-01
321,3.412925e-01,-4.235586e-04,-3.769170e-04,7.192123e-01
322,3.416446e-01,-4.236256e-04,-3.769358e-04,7.204048e-01
323,3.418724e-01,-4.236755e-04,-3.769546e-04,7.215985e-01
324,3.420197e-01,-4.237145e-04,-3.769735e-04,7.227932e-01
325,3.421289e-01,-4.237486e-04,-3.769926e-04,7.239886e-01
326,3.422374e-01,-4.237827e-04,-3.770119e-04,7.251844e-01
327,3.423754e-01,-4.238211e-04,-3.770315e-04,7.263803e-01
328,3.425644e-01,-4.238667e-04,-3.770513e-04,7.275762e-01
329,3.428172e-01,-4.239212e-04,-3.770712e-04,7.287718e-01
330,3.431384e-01,-4.239853e-04,-3.770914e-04,7.299670e-01
331,3.435269e-01,-4.240585e-04,-3.771115e-04,7.311616e-01
332,3.439789e-01,-4.241404e-04,-3.771316e-04,7.323555e-01
333,3.444896e-01,-4.242304e-04,-3.771518e-04,7.335487e-01
334,3.450553e-01,-4.243278e-04,-3.771719e-04,7.347412e-01
335,3.456725e-01,-4.244323e-04,-3.771921e-04,7.359329e-01
336,3.463382e-01,-4.245436e-04,-3.772124e-04,7.371239e-01
337,3.470487e-01,-4.246610e-04,-3.772327e-04,7.383142e-01
338,3.478008e-01,-4.247841e-04,-3.772530e-04,7.395039e-01
339,3.485917e-01,-4.249126e-04,-3.772734e-04,7.406931e-01
340,3.494196e-01,-4.250464e-04,-3.772940e-04,7.418817e-01
341,3.502830e-01,-4.251851e-04,-3.773148e-04,7.430698e-01
342,3.511803e-01,-4.253284e-04,-3.773355e-04,7.442576e-01
343,3.521082e-01,-4.254760e-04,-3.773562e-04,7.454449e-01
344,3.530623e-01,-4.256272e-04,-3.773771e-04,7.466318e-01
