TimeStep,Temp,PotEnergy,TotEnergy,MeanSqDisp
0,7.502952e-01,-2.741337e-04,-1.715970e-04,7.500000e-03
1,7.511800e-01,-2.742459e-04,-1.715883e-04,1.500295e-02
2,7.526522e-01,-2.744340e-04,-1.715752e-04,2.251179e-02
3,7.547068e-01,-2.747079e-04,-1.715683e-04,3.002944e-02
4,7.573354e-01,-2.750800e-04,-1.715811e-04,3.755877e-02
5,7.605266e-01,-2.755529e-04,-1.716180e-04,4.510258e-02
6,7.642656e-01,-2.761224e-04,-1.716765e-04,5.266358e-02
7,7.685343e-01,-2.767810e-04,-1.717517e-04,6.024440e-02
8,7.733085e-01,-2.775211e-04,-1.718394e-04,6.784751e-02
9,7.785569e-01,-2.783350e-04,-1.719360e-04,7.547526e-02
10,7.842376e-01,-2.792142e-04,-1.720388e-04,8.312975e-02
11,7.902953e-01,-2.801488e-04,-1.721457e-04,9.081286e-02
12,7.966569e-01,-2.811277e-04,-1.722551e-04,9.852610e-02
13,8.032275e-01,-2.821368e-04,-1.723662e-04,1.062706e-01
14,8.098838e-01,-2.831584e-04,-1.724782e-04,1.140469e-01
15,8.164698e-01,-2.841704e-04,-1.725902e-04,1.218548e-01
16,8.227918e-01,-2.851456e-04,-1.727014e-04,1.296935e-01
17,8.286184e-01,-2.860520e-04,-1.728115e-04,1.375607e-01
18,8.336867e-01,-2.868533e-04,-1.729201e-04,1.454531e-01
19,8.377196e-01,-2.875113e-04,-1.730271e-04,1.533659e-01
20,8.404521e-01,-2.879892e-04,-1.731315e-04,1.612922e-01
21,8.416621e-01,-2.882561e-04,-1.732330e-04,1.692237e-01
22,8.411974e-01,-2.882910e-04,-1.733315e-04,1.771500e-01
23,8.389956e-01,-2.880854e-04,-1.734268e-04,1.850592e-01
24,8.350997e-01,-2.876447e-04,-1.735185e-04,1.929379e-01
25,8.296669e-01,-2.869906e-04,-1.736068e-04,2.007719e-01
26,8.229668e-01,-2.861598e-04,-1.736917e-04,2.085464e-01
27,8.153633e-01,-2.852026e-04,-1.737736e-04,2.162469e-01
28,8.072806e-01,-2.841770e-04,-1.738525e-04,2.238594e-01
29,7.991579e-01,-2.831437e-04,-1.739293e-04,2.313713e-01
30,7.914030e-01,-2.821586e-04,-1.740040e-04,2.387717e-01
31,7.843570e-01,-2.812684e-04,-1.740767e-04,2.460517e-01
32,7.782766e-01,-2.805081e-04,-1.741474e-04,2.532046e-01
33,7.733299e-01,-2.799008e-04,-1.742161e-04,2.602260e-01
34,7.696033e-01,-2.794584e-04,-1.742830e-04,2.671134e-01
35,7.671129e-01,-2.791830e-04,-1.743480e-04,2.738663e-01
36,7.658185e-01,-2.790692e-04,-1.744111e-04,2.804859e-01
37,7.656405e-01,-2.791064e-04,-1.744726e-04,2.869745e-01
38,7.664761e-01,-2.792803e-04,-1.745323e-04,2.933358e-01
39,7.682131e-01,-2.795758e-04,-1.745904e-04,2.995743e-01
40,7.707383e-01,-2.799772e-04,-1.746467e-04,3.056950e-01
41,7.739405e-01,-2.804700e-04,-1.747019e-04,3.117036e-01
42,7.777087e-01,-2.810390e-04,-1.747560e-04,3.176060e-01
43,7.819279e-01,-2.816686e-04,-1.748089e-04,3.234082e-01
44,7.864756e-01,-2.823419e-04,-1.748607e-04,3.291164e-01
45,7.912249e-01,-2.830416e-04,-1.749114e-04,3.347367e-01
46,7.960558e-01,-2.837514e-04,-1.749610e-04,3.402749e-01
47,8.008703e-01,-2.844578e-04,-1.750094e-04,3.457367e-01
48,8.055995e-01,-2.851513e-04,-1.750566e-04,3.511272e-01
49,8.101950e-01,-2.858259e-04,-1.751032e-04,3.564513e-01
50,8.146111e-01,-2.864755e-04,-1.751492e-04,3.617135e-01
51,8.187985e-01,-2.870932e-04,-1.751948e-04,3.669179e-01
52,8.227187e-01,-2.876735e-04,-1.752393e-04,3.720681e-01
53,8.263722e-01,-2.882163e-04,-1.752828e-04,3.771673e-01
54,8.298113e-01,-2.887289e-04,-1.753253e-04,3.822185e-01
55,8.331241e-01,-2.892237e-04,-1.753674e-04,3.872241e-01
56,8.363959e-01,-2.897125e-04,-1.754092e-04,3.921865e-01
57,8.396787e-01,-2.902026e-04,-1.754506e-04,3.971080e-01
58,8.429855e-01,-2.906955e-04,-1.754916e-04,4.019908e-01
59,8.462976e-01,-2.911887e-04,-1.755321e-04,4.068375e-01
60,8.495667e-01,-2.916757e-04,-1.755723e-04,4.116502e-01
61,8.527181e-01,-2.921463e-04,-1.756123e-04,4.164315e-01
62,8.556703e-01,-2.925891e-04,-1.756516e-04,4.211836e-01
63,8.583615e-01,-2.929951e-04,-1.756899e-04,4.259087e-01
64,8.607654e-01,-2.933611e-04,-1.757273e-04,4.306088e-01
65,8.628908e-01,-2.936883e-04,-1.757641e-04,4.352854e-01
66,8.647760e-01,-2.939819e-04,-1.758000e-04,4.399399e-01
67,8.664847e-01,-2.942503e-04,-1.758350e-04,4.445734e-01
68,8.680962e-01,-2.945049e-04,-1.758693e-04,4.491869e-01
69,8.696845e-01,-2.947559e-04,-1.759033e-04,4.537812e-01
70,8.712871e-01,-2.950086e-04,-1.759369e-04,4.583571e-01
71,8.728846e-01,-2.952602e-04,-1.759703e-04,4.629153e-01
72,8.744110e-01,-2.955017e-04,-1.760031e-04,4.674566e-01
73,8.757909e-01,-2.957223e-04,-1.760351e-04,4.719818e-01
74,8.769817e-01,-2.959160e-04,-1.760661e-04,4.764915e-01
75,8.779967e-01,-2.960847e-04,-1.760961e-04,4.809862e-01
76,8.789044e-01,-2.962378e-04,-1.761251e-04,4.854662e-01
77,8.798117e-01,-2.963900e-04,-1.761533e-04,4.899318e-01
78,8.808406e-01,-2.965584e-04,-1.761811e-04,4.943831e-01
79,8.821004e-01,-2.967583e-04,-1.762089e-04,4.988204e-01
80,8.836562e-01,-2.969989e-04,-1.762369e-04,5.032441e-01
81,8.855082e-01,-2.972801e-04,-1.762649e-04,5.076547e-01
82,8.875925e-01,-2.975928e-04,-1.762928e-04,5.120529e-01
83,8.898011e-01,-2.979220e-04,-1.763202e-04,5.164396e-01
84,8.920056e-01,-2.982501e-04,-1.763470e-04,5.208158e-01
85,8.940809e-01,-2.985599e-04,-1.763732e-04,5.251822e-01
86,8.959368e-01,-2.988386e-04,-1.763982e-04,5.295397e-01
87,8.975468e-01,-2.990825e-04,-1.764222e-04,5.338887e-01
88,8.989521e-01,-2.992976e-04,-1.764451e-04,5.382295e-01
89,9.002303e-01,-2.994950e-04,-1.764679e-04,5.425623e-01
90,9.014514e-01,-2.996848e-04,-1.764908e-04,5.468871e-01
91,9.026490e-01,-2.998712e-04,-1.765136e-04,5.512039e-01
92,9.038169e-01,-3.000532e-04,-1.765360e-04,5.555127e-01
93,9.049268e-01,-3.002268e-04,-1.765579e-04,5.598136e-01
94,9.059519e-01,-3.003884e-04,-1.765794e-04,5.641067e-01
95,9.068797e-01,-3.005363e-04,-1.766004e-04,5.683919e-01
96,9.077059e-01,-3.006696e-04,-1.766209e-04,5.726692e-01
97,9.084154e-01,-3.007869e-04,-1.766412e-04,5.769387e-01
98,9.089732e-01,-3.008835e-04,-1.766616e-04,5.812002e-01
99,9.093332e-01,-3.009528e-04,-1.766816e-04,5.854537e-01
100,7.505493e-01,-3.010458e-04,-1.984744e-04,5.893013e-01
101,7.517316e-01,-3.012252e-04,-1.984922e-04,5.931258e-01
102,7.535147e-01,-3.014864e-04,-1.985097e-04,5.969276e-01
103,7.558473e-01,-3.018226e-04,-1.985271e-04,6.007075e-01
104,7.586480e-01,-3.022228e-04,-1.985446e-04,6.044668e-01
105,7.618034e-01,-3.026714e-04,-1.985620e-04,6.082067e-01
106,7.651768e-01,-3.031499e-04,-1.985795e-04,6.119290e-01
107,7.686198e-01,-3.036379e-04,-1.985969e-04,6.156351e-01
108,7.719828e-01,-3.041146e-04,-1.986140e-04,6.193269e-01
109,7.751278e-01,-3.045611e-04,-1.986307e-04,6.230059e-01
110,7.779450e-01,-3.049624e-04,-1.986470e-04,6.266734e-01
111,7.803718e-01,-3.053094e-04,-1.986624e-04,6.303307e-01
112,7.824046e-01,-3.056018e-04,-1.986770e-04,6.339783e-01
113,7.840949e-01,-3.058467e-04,-1.986909e-04,6.376170e-01
114,7.855267e-01,-3.060562e-04,-1.987047e-04,6.412470e-01
115,7.867848e-01,-3.062420e-04,-1.987186e-04,6.448686e-01
116,7.879261e-01,-3.064121e-04,-1.987327e-04,6.484820e-01
117,7.889637e-01,-3.065684e-04,-1.987472e-04,6.520872e-01
118,7.898743e-01,-3.067073e-04,-1.987616e-04,6.556844e-01
119,7.906207e-01,-3.068233e-04,-1.987756e-04,6.592736e-01
120,7.911729e-01,-3.069124e-04,-1.987893e-04,6.628546e-01
121,7.915140e-01,-3.069724e-04,-1.988026e-04,6.664274e-01
122,7.916382e-01,-3.070025e-04,-1.988158e-04,6.699916e-01
123,7.915526e-01,-3.070038e-04,-1.988288e-04,6.735469e-01
124,7.912877e-01,-3.069802e-04,-1.988414e-04,6.770930e-01
125,7.909039e-01,-3.069399e-04,-1.988536e-04,6.806294e-01
126,7.904823e-01,-3.068941e-04,-1.988653e-04,6.841555e-01
127,7.901055e-01,-3.068542e-04,-1.988769e-04,6.876707e-01
128,7.898443e-01,-3.068300e-04,-1.988884e-04,6.911746e-01
129,7.897538e-01,-3.068294e-04,-1.989002e-04,6.946668e-01
130,7.898672e-01,-3.068572e-04,-1.989125e-04,6.981467e-01
131,7.901861e-01,-3.069130e-04,-1.989248e-04,7.016143e-01
132,7.906762e-01,-3.069925e-04,-1.989372e-04,7.050694e-01
133,7.912755e-01,-3.070866e-04,-1.989494e-04,7.085123e-01
134,7.919106e-01,-3.071856e-04,-1.989616e-04,7.119431e-01
135,7.925156e-01,-3.072802e-04,-1.989736e-04,7.153622e-01
136,7.930456e-01,-3.073645e-04,-1.989855e-04,7.187698e-01
137,7.934813e-01,-3.074357e-04,-1.989972e-04,7.221664e-01
138,7.938240e-01,-3.074939e-04,-1.990085e-04,7.255522e-01
139,7.940848e-01,-3.075408e-04,-1.990197e-04,7.289274e-01
140,7.942760e-01,-3.075781e-04,-1.990309e-04,7.322923e-01
141,7.944077e-01,-3.076071e-04,-1.990419e-04,7.356472e-01
142,7.944836e-01,-3.076285e-04,-1.990529e-04,7.389921e-01
143,7.944937e-01,-3.076410e-04,-1.990641e-04,7.423271e-01
144,7.944111e-01,-3.076407e-04,-1.990751e-04,7.456521e-01
145,7.942008e-01,-3.076229e-04,-1.990860e-04,7.489669e-01
146,7.938422e-01,-3.075843e-04,-1.990963e-04,7.522713e-01
147,7.933522e-01,-3.075271e-04,-1.991061e-04,7.555647e-01
148,7.927978e-01,-3.074605e-04,-1.991153e-04,7.588466e-01
149,7.922866e-01,-3.073996e-04,-1.991243e-04,7.621165e-01
150,7.919352e-01,-3.073608e-04,-1.991335e-04,7.653737e-01
151,7.918339e-01,-3.073567e-04,-1.991433e-04,7.686180e-01
152,7.920264e-01,-3.073931e-04,-1.991534e-04,7.718492e-01
153,7.925119e-01,-3.074697e-04,-1.991636e-04,7.750672e-01
154,7.932643e-01,-3.075825e-04,-1.991736e-04,7.782721e-01
155,7.942524e-01,-3.077273e-04,-1.991833e-04,7.814643e-01
156,7.954478e-01,-3.079003e-04,-1.991930e-04,7.846441e-01
157,7.968118e-01,-3.080967e-04,-1.992029e-04,7.878121e-01
158,7.982841e-01,-3.083081e-04,-1.992132e-04,7.909692e-01
159,7.997938e-01,-3.085246e-04,-1.992233e-04,7.941165e-01
160,8.012814e-01,-3.087379e-04,-1.992333e-04,7.972552e-01
161,8.027062e-01,-3.089422e-04,-1.992429e-04,8.003866e-01
162,8.040333e-01,-3.091338e-04,-1.992532e-04,8.035120e-01
163,8.052185e-01,-3.093061e-04,-1.992635e-04,8.066325e-01
164,8.062047e-01,-3.094511e-04,-1.992737e-04,8.097491e-01
165,8.069308e-01,-3.095604e-04,-1.992838e-04,8.128625e-01
166,8.073495e-01,-3.096273e-04,-1.992934e-04,8.159731e-01
167,8.074478e-01,-3.096497e-04,-1.993024e-04,8.190812e-01
168,8.072600e-01,-3.096322e-04,-1.993106e-04,8.221866e-01
169,8.068628e-01,-3.095857e-04,-1.993184e-04,8.252890e-01
170,8.063494e-01,-3.095234e-04,-1.993263e-04,8.283879e-01
171,8.058003e-01,-3.094565e-04,-1.993344e-04,8.314828e-01
172,8.052617e-01,-3.093914e-04,-1.993429e-04,8.345729e-01
173,8.047419e-01,-3.093290e-04,-1.993515e-04,8.376578e-01
174,8.042238e-01,-3.092670e-04,-1.993603e-04,8.407368e-01
175,8.036861e-01,-3.092019e-04,-1.993687e-04,8.438094e-01
176,8.031268e-01,-3.091334e-04,-1.993767e-04,8.468752e-01
177,8.025770e-01,-3.090658e-04,-1.993842e-04,8.499337e-01
178,8.020993e-01,-3.090076e-04,-1.993913e-04,8.529845e-01
179,8.017691e-01,-3.089696e-04,-1.993984e-04,8.560273e-01
180,8.016456e-01,-3.089602e-04,-1.994059e-04,8.590618e-01
181,8.017497e-01,-3.089822e-04,-1.994137e-04,8.620877e-01
182,8.020619e-01,-3.090327e-04,-1.994215e-04,8.651048e-01
183,8.025368e-01,-3.091052e-04,-1.994290e-04,8.681129e-01
184,8.031189e-01,-3.091918e-04,-1.994361e-04,8.711120e-01
185,8.037523e-01,-3.092855e-04,-1.994432e-04,8.741018e-01
186,8.043872e-01,-3.093793e-04,-1.994502e-04,8.770824e-01
187,8.049898e-01,-3.094684e-04,-1.994570e-04,8.800536e-01
188,8.055509e-01,-3.095514e-04,-1.994633e-04,8.830155e-01
189,8.060884e-01,-3.096308e-04,-1.994693e-04,8.859681e-01
190,8.066391e-01,-3.097121e-04,-1.994753e-04,8.889116e-01
191,8.072467e-01,-3.098011e-04,-1.994813e-04,8.918461e-01
192,8.079524e-01,-3.099034e-04,-1.994871e-04,8.947721e-01
193,8.087893e-01,-3.100237e-04,-1.994931e-04,8.976900e-01
194,8.097760e-01,-3.101645e-04,-1.994991e-04,9.006004e-01
195,8.109059e-01,-3.103254e-04,-1.995055e-04,9.035040e-01
196,8.121367e-01,-3.105003e-04,-1.995123e-04,9.064014e-01
197,8.133892e-01,-3.106783e-04,-1.995191e-04,9.092933e-01
198,8.145585e-01,-3.108448e-04,-1.995258e-04,9.121804e-01
199,8.155409e-01,-3.109857e-04,-1.995324e-04,9.150632e-01
200,8.162669e-01,-3.110912e-04,-1.995387e-04,9.179419e-01
201,8.167201e-01,-3.111590e-04,-1.995446e-04,9.208169e-01
202,8.169349e-01,-3.111944e-04,-1.995506e-04,9.236881e-01
203,8.169738e-01,-3.112057e-04,-1.995566e-04,9.265555e-01
204,8.169026e-01,-3.112023e-04,-1.995629e-04,9.294190e-01
205,8.167707e-01,-3.111910e-04,-1.995696e-04,9.322785e-01
206,8.166004e-01,-3.111748e-04,-1.995767e-04,9.351340e-01
207,8.163844e-01,-3.111528e-04,-1.995842e-04,9.379851e-01
208,8.160984e-01,-3.111213e-04,-1.995919e-04,9.408320e-01
209,8.157219e-01,-3.110775e-04,-1.995994e-04,9.436742e-01
210,8.152584e-01,-3.110214e-04,-1.996067e-04,9.465114e-01
211,8.147391e-01,-3.109577e-04,-1.996140e-04,9.493434e-01
212,8.142144e-01,-3.108930e-04,-1.996210e-04,9.521695e-01
213,8.137450e-01,-3.108358e-04,-1.996279e-04,9.549893e-01
214,8.133974e-01,-3.107951e-04,-1.996347e-04,9.578022e-01
215,8.132380e-01,-3.107802e-04,-1.996416e-04,9.606078e-01
216,8.133179e-01,-3.107984e-04,-1.996490e-04,9.634059e-01
217,8.136511e-01,-3.108520e-04,-1.996570e-04,9.661961e-01
218,8.142000e-01,-3.109356e-04,-1.996656e-04,9.689785e-01
219,8.148793e-01,-3.110374e-04,-1.996745e-04,9.717530e-01
220,8.155832e-01,-3.111426e-04,-1.996835e-04,9.745196e-01
221,8.162213e-01,-3.112382e-04,-1.996919e-04,9.772782e-01
222,8.167490e-01,-3.113182e-04,-1.996998e-04,9.800288e-01
223,8.171821e-01,-3.113850e-04,-1.997074e-04,9.827710e-01
224,8.175869e-01,-3.114476e-04,-1.997147e-04,9.855045e-01
225,8.180504e-01,-3.115184e-04,-1.997222e-04,9.882293e-01
226,8.186407e-01,-3.116070e-04,-1.997300e-04,9.909451e-01
227,8.193793e-01,-3.117162e-04,-1.997384e-04,9.936522e-01
228,8.202342e-01,-3.118418e-04,-1.997471e-04,9.963510e-01
229,8.211353e-01,-3.119737e-04,-1.997559e-04,9.990421e-01
230,8.220035e-01,-3.121011e-04,-1.997646e-04,1.001726e+00
231,8.227807e-01,-3.122159e-04,-1.997732e-04,1.004404e+00
232,8.234449e-01,-3.123150e-04,-1.997815e-04,1.007076e+00
233,8.240028e-01,-3.123998e-04,-1.997900e-04,1.009744e+00
234,8.244704e-01,-3.124723e-04,-1.997986e-04,1.012407e+00
235,8.248544e-01,-3.125336e-04,-1.998075e-04,1.015066e+00
236,8.251465e-01,-3.125824e-04,-1.998164e-04,1.017721e+00
237,8.253285e-01,-3.126162e-04,-1.998253e-04,1.020374e+00
238,8.253814e-01,-3.126323e-04,-1.998342e-04,1.023023e+00
239,8.252917e-01,-3.126288e-04,-1.998430e-04,1.025669e+00
240,8.250566e-01,-3.126054e-04,-1.998517e-04,1.028313e+00
241,8.246938e-01,-3.125642e-04,-1.998601e-04,1.030953e+00
242,8.242510e-01,-3.125115e-04,-1.998679e-04,1.033590e+00
243,8.238089e-01,-3.124586e-04,-1.998754e-04,1.036223e+00
244,8.234697e-01,-3.124195e-04,-1.998826e-04,1.038852e+00
245,8.233340e-01,-3.124083e-04,-1.998900e-04,1.041476e+00
246,8.234723e-01,-3.124349e-04,-1.998977e-04,1.044095e+00
247,8.239006e-01,-3.125014e-04,-1.999057e-04,1.046709e+00
248,8.245695e-01,-3.126008e-04,-1.999137e-04,1.049318e+00
249,8.253753e-01,-3.127191e-04,-1.999218e-04,1.051923e+00
250,8.261879e-01,-3.128382e-04,-1.999299e-04,1.054523e+00
251,8.268864e-01,-3.129413e-04,-1.999375e-04,1.057120e+00
252,8.273904e-01,-3.130172e-04,-1.999445e-04,1.059714e+00
253,8.276748e-01,-3.130625e-04,-1.999510e-04,1.062304e+00
254,8.277599e-01,-3.130805e-04,-1.999574e-04,1.064891e+00
255,8.276850e-01,-3.130766e-04,-1.999637e-04,1.067475e+00
256,8.274865e-01,-3.130557e-04,-1.999699e-04,1.070055e+00
257,8.271993e-01,-3.130226e-04,-1.999761e-04,1.072632e+00
258,8.268689e-01,-3.129835e-04,-1.999821e-04,1.075204e+00
259,8.265539e-01,-3.129466e-04,-1.999882e-04,1.077771e+00
260,8.263086e-01,-3.129193e-04,-1.999945e-04,1.080332e+00
261,8.261615e-01,-3.129056e-04,-2.000009e-04,1.082887e+00
262,8.261094e-01,-3.129046e-04,-2.000070e-04,1.085434e+00
263,8.261281e-01,-3.129130e-04,-2.000128e-04,1.087974e+00
264,8.261846e-01,-3.129260e-04,-2.000181e-04,1.090507e+00
265,8.262483e-01,-3.129397e-04,-2.000231e-04,1.093031e+00
266,8.263001e-01,-3.129519e-04,-2.000282e-04,1.095547e+00
267,8.263398e-01,-3.129623e-04,-2.000332e-04,1.098055e+00
268,8.263883e-01,-3.129734e-04,-2.000377e-04,1.100555e+00
269,8.264882e-01,-3.129913e-04,-2.000419e-04,1.103048e+00
270,8.267015e-01,-3.130246e-04,-2.000461e-04,1.105533e+00
271,8.270980e-01,-3.130830e-04,-2.000502e-04,1.108011e+00
272,8.277299e-01,-3.131739e-04,-2.000549e-04,1.110482e+00
273,8.286033e-01,-3.132989e-04,-2.000605e-04,1.112947e+00
274,8.296615e-01,-3.134497e-04,-2.000667e-04,1.115406e+00
275,8.307920e-01,-3.136107e-04,-2.000731e-04,1.117859e+00
276,8.318614e-01,-3.137630e-04,-2.000793e-04,1.120309e+00
277,8.327624e-01,-3.138917e-04,-2.000849e-04,1.122754e+00
278,8.334414e-01,-3.139895e-04,-2.000899e-04,1.125196e+00
279,8.338966e-01,-3.140564e-04,-2.000946e-04,1.127634e+00
280,8.341550e-01,-3.140961e-04,-2.000990e-04,1.130069e+00
281,8.342548e-01,-3.141136e-04,-2.001028e-04,1.132501e+00
282,8.342466e-01,-3.141164e-04,-2.001067e-04,1.134930e+00
283,8.341985e-01,-3.141134e-04,-2.001104e-04,1.137356e+00
284,8.341893e-01,-3.141157e-04,-2.001139e-04,1.139779e+00
285,8.342848e-01,-3.141325e-04,-2.001177e-04,1.142199e+00
286,8.345111e-01,-3.141676e-04,-2.001218e-04,1.144616e+00
287,8.348435e-01,-3.142174e-04,-2.001262e-04,1.147030e+00
288,8.352204e-01,-3.142730e-04,-2.001303e-04,1.149441e+00
289,8.355744e-01,-3.143252e-04,-2.001341e-04,1.151849e+00
290,8.358569e-01,-3.143675e-04,-2.001378e-04,1.154254e+00
291,8.360412e-01,-3.143961e-04,-2.001412e-04,1.156657e+00
292,8.361101e-01,-3.144087e-04,-2.001444e-04,1.159056e+00
293,8.360486e-01,-3.144035e-04,-2.001476e-04,1.161451e+00
294,8.358531e-01,-3.143797e-04,-2.001505e-04,1.163843e+00
295,8.355435e-01,-3.143403e-04,-2.001534e-04,1.166231e+00
296,8.351704e-01,-3.142918e-04,-2.001560e-04,1.168615e+00
297,8.348104e-01,-3.142453e-04,-2.001586e-04,1.170994e+00
298,8.345516e-01,-3.142126e-04,-2.001613e-04,1.173368e+00
299,8.344732e-01,-3.142048e-04,-2.001642e-04,1.175737e+00
300,7.503805e-01,-3.142600e-04,-2.117116e-04,1.177976e+00
301,7.514389e-01,-3.144086e-04,-2.117156e-04,1.180205e+00
302,7.530846e-01,-3.146381e-04,-2.117202e-04,1.182425e+00
303,7.551720e-01,-3.149281e-04,-2.117249e-04,1.184636e+00
304,7.575266e-01,-3.152547e-04,-2.117297e-04,1.186839e+00
305,7.599659e-01,-3.155926e-04,-2.117343e-04,1.189034e+00
306,7.623120e-01,-3.159177e-04,-2.117388e-04,1.191221e+00
307,7.644035e-01,-3.162077e-04,-2.117429e-04,1.193402e+00
308,7.661155e-01,-3.164450e-04,-2.117462e-04,1.195576e+00
309,7.673774e-01,-3.166202e-04,-2.117490e-04,1.197744e+00
310,7.681814e-01,-3.167324e-04,-2.117514e-04,1.199906e+00
311,7.685756e-01,-3.167882e-04,-2.117533e-04,1.202062e+00
312,7.686485e-01,-3.168002e-04,-2.117553e-04,1.204212e+00
313,7.685083e-01,-3.167829e-04,-2.117572e-04,1.206356e+00
314,7.682598e-01,-3.167508e-04,-2.117591e-04,1.208494e+00
315,7.679896e-01,-3.167159e-04,-2.117610e-04,1.210625e+00
316,7.677673e-01,-3.166874e-04,-2.117629e-04,1.212750e+00
317,7.676569e-01,-3.166743e-04,-2.117649e-04,1.214869e+00
318,7.677148e-01,-3.166845e-04,-2.117672e-04,1.216981e+00
319,7.679674e-01,-3.167221e-04,-2.117703e-04,1.219088e+00
320,7.683842e-01,-3.167826e-04,-2.117739e-04,1.221188e+00
321,7.688764e-01,-3.168536e-04,-2.117775e-04,1.223283e+00
322,7.693241e-01,-3.169184e-04,-2.117812e-04,1.225373e+00
323,7.696126e-01,-3.169608e-04,-2.117841e-04,1.227457e+00
324,7.696639e-01,-3.169702e-04,-2.117866e-04,1.229536e+00
325,7.694566e-01,-3.169437e-04,-2.117883e-04,1.231610e+00
326,7.690314e-01,-3.168869e-04,-2.117896e-04,1.233679e+00
327,7.684785e-01,-3.168125e-04,-2.117909e-04,1.235743e+00
328,7.679065e-01,-3.167357e-04,-2.117922e-04,1.237801e+00
329,7.674051e-01,-3.166693e-04,-2.117944e-04,1.239854e+00
330,7.670234e-01,-3.166199e-04,-2.117971e-04,1.241901e+00
331,7.667736e-01,-3.165885e-04,-2.117998e-04,1.243943e+00
332,7.666490e-01,-3.165744e-04,-2.118027e-04,1.245979e+00
333,7.666339e-01,-3.165752e-04,-2.118057e-04,1.248010e+00
334,7.667064e-01,-3.165881e-04,-2.118086e-04,1.250037e+00
335,7.668453e-01,-3.166101e-04,-2.118116e-04,1.252058e+00
336,7.670372e-01,-3.166395e-04,-2.118148e-04,1.254075e+00
337,7.672759e-01,-3.166758e-04,-2.118185e-04,1.256088e+00
338,7.675533e-01,-3.167175e-04,-2.118222e-04,1.258097e+00
339,7.678519e-01,-3.167620e-04,-2.118260e-04,1.260103e+00
340,7.681463e-01,-3.168059e-04,-2.118297e-04,1.262105e+00
341,7.684138e-01,-3.168463e-04,-2.118335e-04,1.264104e+00
342,7.686468e-01,-3.168816e-04,-2.118369e-04,1.266100e+00
343,7.688575e-01,-3.169137e-04,-2.118403e-04,1.268092e+00
344,7.690735e-01,-3.169466e-04,-2.118437e-04,1.270082e+00
