TimeStep,Temp,PotEnergy,TotEnergy,MeanSqDisp
0,5.999834e-01,-1.075328e-02,-8.953328e-03,6.708204e-03
1,5.999244e-01,-1.075295e-02,-8.953177e-03,1.341622e-02
2,5.997954e-01,-1.075254e-02,-8.953151e-03,2.012377e-02
3,5.995503e-01,-1.075210e-02,-8.953451e-03,2.683034e-02
4,5.991218e-01,-1.075139e-02,-8.954022e-03,3.353514e-02
5,5.984188e-01,-1.074999e-02,-8.954731e-03,4.023691e-02
6,5.973251e-01,-1.074747e-02,-8.955491e-03,4.693381e-02
7,5.956966e-01,-1.074334e-02,-8.956248e-03,5.362328e-02
8,5.933606e-01,-1.073705e-02,-8.956972e-03,6.030183e-02
9,5.901150e-01,-1.072798e-02,-8.957635e-03,6.696486e-02
10,5.857314e-01,-1.071542e-02,-8.958223e-03,7.360649e-02
11,5.799630e-01,-1.069861e-02,-8.958720e-03,8.021927e-02
12,5.725604e-01,-1.067680e-02,-8.959116e-03,8.679406e-02
13,5.632988e-01,-1.064930e-02,-8.959404e-03,9.331979e-02
14,5.520180e-01,-1.061563e-02,-8.959576e-03,9.978342e-02
15,5.386719e-01,-1.057564e-02,-8.959623e-03,1.061700e-01
16,5.233759e-01,-1.052968e-02,-8.959549e-03,1.124630e-01
17,5.064327e-01,-1.047865e-02,-8.959352e-03,1.186448e-01
18,4.883187e-01,-1.042402e-02,-8.959063e-03,1.246976e-01
19,4.696247e-01,-1.036758e-02,-8.958706e-03,1.306042e-01
20,4.509760e-01,-1.031123e-02,-8.958300e-03,1.363490e-01
21,4.329616e-01,-1.025675e-02,-8.957866e-03,1.419190e-01
22,4.160955e-01,-1.020571e-02,-8.957424e-03,1.473035e-01
23,4.008064e-01,-1.015941e-02,-8.956993e-03,1.524952e-01
24,3.874396e-01,-1.011890e-02,-8.956584e-03,1.574898e-01
25,3.762552e-01,-1.008494e-02,-8.956169e-03,1.622859e-01
26,3.674187e-01,-1.005802e-02,-8.955768e-03,1.668850e-01
27,3.609867e-01,-1.003835e-02,-8.955390e-03,1.712913e-01
28,3.568994e-01,-1.002576e-02,-8.955060e-03,1.755116e-01
29,3.549838e-01,-1.001973e-02,-8.954775e-03,1.795546e-01
30,3.549715e-01,-1.001946e-02,-8.954544e-03,1.834307e-01
31,3.565264e-01,-1.002391e-02,-8.954329e-03,1.871515e-01
32,3.592779e-01,-1.003197e-02,-8.954139e-03,1.907292e-01
33,3.628520e-01,-1.004255e-02,-8.953989e-03,1.941760e-01
34,3.668985e-01,-1.005455e-02,-8.953855e-03,1.975041e-01
35,3.711118e-01,-1.006707e-02,-8.953734e-03,2.007249e-01
36,3.752455e-01,-1.007939e-02,-8.953656e-03,2.038490e-01
37,3.791221e-01,-1.009094e-02,-8.953578e-03,2.068858e-01
38,3.826375e-01,-1.010142e-02,-8.953508e-03,2.098437e-01
39,3.857595e-01,-1.011074e-02,-8.953463e-03,2.127299e-01
40,3.885190e-01,-1.011901e-02,-8.953450e-03,2.155507e-01
41,3.909903e-01,-1.012644e-02,-8.953468e-03,2.183114e-01
42,3.932625e-01,-1.013332e-02,-8.953529e-03,2.210166e-01
43,3.954065e-01,-1.013985e-02,-8.953635e-03,2.236708e-01
44,3.974499e-01,-1.014612e-02,-8.953766e-03,2.262776e-01
45,3.993670e-01,-1.015203e-02,-8.953933e-03,2.288409e-01
46,4.010877e-01,-1.015740e-02,-8.954134e-03,2.313640e-01
47,4.025183e-01,-1.016190e-02,-8.954343e-03,2.338501e-01
48,4.035661e-01,-1.016526e-02,-8.954559e-03,2.363018e-01
49,4.041606e-01,-1.016725e-02,-8.954770e-03,2.387212e-01
50,4.042689e-01,-1.016778e-02,-8.954974e-03,2.411099e-01
51,4.039034e-01,-1.016687e-02,-8.955159e-03,2.434690e-01
52,4.031218e-01,-1.016468e-02,-8.955318e-03,2.457987e-01
53,4.020195e-01,-1.016152e-02,-8.955465e-03,2.480991e-01
54,4.007151e-01,-1.015776e-02,-8.955619e-03,2.503698e-01
55,3.993329e-01,-1.015377e-02,-8.955770e-03,2.526101e-01
56,3.979855e-01,-1.014989e-02,-8.955930e-03,2.548195e-01
57,3.967593e-01,-1.014638e-02,-8.956102e-03,2.569975e-01
58,3.957074e-01,-1.014341e-02,-8.956291e-03,2.591435e-01
59,3.948469e-01,-1.014103e-02,-8.956491e-03,2.612576e-01
60,3.941633e-01,-1.013918e-02,-8.956694e-03,2.633396e-01
61,3.936169e-01,-1.013774e-02,-8.956886e-03,2.653899e-01
62,3.931528e-01,-1.013655e-02,-8.957093e-03,2.674087e-01
63,3.927126e-01,-1.013545e-02,-8.957311e-03,2.693966e-01
64,3.922443e-01,-1.013427e-02,-8.957533e-03,2.713540e-01
65,3.917104e-01,-1.013289e-02,-8.957756e-03,2.732812e-01
66,3.910918e-01,-1.013126e-02,-8.957984e-03,2.751785e-01
67,3.903874e-01,-1.012937e-02,-8.958212e-03,2.770461e-01
68,3.896138e-01,-1.012728e-02,-8.958443e-03,2.788840e-01
69,3.888047e-01,-1.012508e-02,-8.958663e-03,2.806922e-01
70,3.880125e-01,-1.012291e-02,-8.958877e-03,2.824706e-01
71,3.873087e-01,-1.012101e-02,-8.959082e-03,2.842189e-01
72,3.867796e-01,-1.011963e-02,-8.959289e-03,2.859372e-01
73,3.865129e-01,-1.011904e-02,-8.959501e-03,2.876255e-01
74,3.865760e-01,-1.011943e-02,-8.959706e-03,2.892840e-01
75,3.869932e-01,-1.012088e-02,-8.959905e-03,2.909133e-01
76,3.877326e-01,-1.012332e-02,-8.960123e-03,2.925145e-01
77,3.887106e-01,-1.012646e-02,-8.960331e-03,2.940888e-01
78,3.898134e-01,-1.012996e-02,-8.960524e-03,2.956376e-01
79,3.909251e-01,-1.013349e-02,-8.960718e-03,2.971628e-01
80,3.919530e-01,-1.013678e-02,-8.960917e-03,2.986658e-01
81,3.928396e-01,-1.013963e-02,-8.961115e-03,3.001481e-01
82,3.935638e-01,-1.014200e-02,-8.961306e-03,3.016112e-01
83,3.941311e-01,-1.014389e-02,-8.961492e-03,3.030559e-01
84,3.945617e-01,-1.014536e-02,-8.961678e-03,3.044832e-01
85,3.948770e-01,-1.014649e-02,-8.961862e-03,3.058936e-01
86,3.950906e-01,-1.014731e-02,-8.962039e-03,3.072876e-01
87,3.952022e-01,-1.014782e-02,-8.962215e-03,3.086654e-01
88,3.951968e-01,-1.014799e-02,-8.962398e-03,3.100270e-01
89,3.950494e-01,-1.014773e-02,-8.962578e-03,3.113725e-01
90,3.947373e-01,-1.014697e-02,-8.962757e-03,3.127018e-01
91,3.942586e-01,-1.014568e-02,-8.962908e-03,3.140145e-01
92,3.936506e-01,-1.014399e-02,-8.963034e-03,3.153103e-01
93,3.929994e-01,-1.014215e-02,-8.963147e-03,3.165886e-01
94,3.924319e-01,-1.014054e-02,-8.963248e-03,3.178492e-01
95,3.920885e-01,-1.013963e-02,-8.963369e-03,3.190915e-01
96,3.920851e-01,-1.013974e-02,-8.963489e-03,3.203157e-01
97,3.924784e-01,-1.014106e-02,-8.963625e-03,3.215219e-01
98,3.932494e-01,-1.014353e-02,-8.963785e-03,3.227108e-01
99,3.943080e-01,-1.014688e-02,-8.963955e-03,3.238835e-01
100,6.007589e-01,-1.014935e-02,-8.347074e-03,3.253359e-01
101,6.000742e-01,-1.014750e-02,-8.347279e-03,3.268192e-01
102,5.978389e-01,-1.014101e-02,-8.347491e-03,3.283328e-01
103,5.940179e-01,-1.012973e-02,-8.347676e-03,3.298748e-01
104,5.886624e-01,-1.011382e-02,-8.347831e-03,3.314420e-01
105,5.819199e-01,-1.009374e-02,-8.347984e-03,3.330304e-01
106,5.740382e-01,-1.007023e-02,-8.348120e-03,3.346347e-01
107,5.653598e-01,-1.004432e-02,-8.348244e-03,3.362489e-01
108,5.563061e-01,-1.001728e-02,-8.348363e-03,3.378664e-01
109,5.473482e-01,-9.990495e-03,-8.348451e-03,3.394806e-01
110,5.389658e-01,-9.965445e-03,-8.348548e-03,3.410850e-01
111,5.315945e-01,-9.943442e-03,-8.348659e-03,3.426734e-01
112,5.255735e-01,-9.925495e-03,-8.348775e-03,3.442408e-01
113,5.211041e-01,-9.912225e-03,-8.348912e-03,3.457831e-01
114,5.182312e-01,-9.903770e-03,-8.349076e-03,3.472972e-01
115,5.168509e-01,-9.899803e-03,-8.349251e-03,3.487814e-01
116,5.167418e-01,-9.899652e-03,-8.349426e-03,3.502349e-01
117,5.176078e-01,-9.902460e-03,-8.349636e-03,3.516578e-01
118,5.191202e-01,-9.907189e-03,-8.349828e-03,3.530509e-01
119,5.209530e-01,-9.912861e-03,-8.350002e-03,3.544158e-01
120,5.228110e-01,-9.918587e-03,-8.350154e-03,3.557541e-01
121,5.244506e-01,-9.923618e-03,-8.350266e-03,3.570676e-01
122,5.256932e-01,-9.927423e-03,-8.350343e-03,3.583583e-01
123,5.264330e-01,-9.929693e-03,-8.350394e-03,3.596278e-01
124,5.266431e-01,-9.930344e-03,-8.350415e-03,3.608776e-01
125,5.263866e-01,-9.929568e-03,-8.350408e-03,3.621087e-01
126,5.258236e-01,-9.927851e-03,-8.350380e-03,3.633221e-01
127,5.252026e-01,-9.925967e-03,-8.350359e-03,3.645184e-01
128,5.248218e-01,-9.924797e-03,-8.350332e-03,3.656983e-01
129,5.249637e-01,-9.925193e-03,-8.350302e-03,3.668628e-01
130,5.258199e-01,-9.927760e-03,-8.350300e-03,3.680130e-01
131,5.274276e-01,-9.932602e-03,-8.350319e-03,3.691510e-01
132,5.296417e-01,-9.939299e-03,-8.350374e-03,3.702791e-01
133,5.321516e-01,-9.946886e-03,-8.350431e-03,3.714000e-01
134,5.345403e-01,-9.954107e-03,-8.350487e-03,3.725166e-01
135,5.363703e-01,-9.959636e-03,-8.350525e-03,3.736315e-01
136,5.372767e-01,-9.962339e-03,-8.350509e-03,3.747469e-01
137,5.370478e-01,-9.961568e-03,-8.350424e-03,3.758638e-01
138,5.356826e-01,-9.957356e-03,-8.350308e-03,3.769826e-01
139,5.334101e-01,-9.950401e-03,-8.350171e-03,3.781024e-01
140,5.306650e-01,-9.941990e-03,-8.349995e-03,3.792213e-01
141,5.280150e-01,-9.933867e-03,-8.349822e-03,3.803371e-01
142,5.260534e-01,-9.927825e-03,-8.349664e-03,3.814470e-01
143,5.252815e-01,-9.925391e-03,-8.349546e-03,3.825487e-01
144,5.260111e-01,-9.927509e-03,-8.349476e-03,3.836406e-01
145,5.283089e-01,-9.934385e-03,-8.349458e-03,3.847220e-01
146,5.319976e-01,-9.945463e-03,-8.349470e-03,3.857934e-01
147,5.367169e-01,-9.959640e-03,-8.349489e-03,3.868564e-01
148,5.420255e-01,-9.975563e-03,-8.349487e-03,3.879132e-01
149,5.475055e-01,-9.991981e-03,-8.349464e-03,3.889670e-01
150,5.528339e-01,-1.000790e-02,-8.349402e-03,3.900209e-01
151,5.578014e-01,-1.002273e-02,-8.349330e-03,3.910781e-01
152,5.622903e-01,-1.003613e-02,-8.349260e-03,3.921417e-01
153,5.662312e-01,-1.004787e-02,-8.349180e-03,3.932147e-01
154,5.695625e-01,-1.005780e-02,-8.349114e-03,3.942997e-01
155,5.722034e-01,-1.006567e-02,-8.349064e-03,3.953990e-01
156,5.740475e-01,-1.007116e-02,-8.349020e-03,3.965145e-01
157,5.749776e-01,-1.007393e-02,-8.348994e-03,3.976476e-01
158,5.748967e-01,-1.007367e-02,-8.348982e-03,3.987990e-01
159,5.737657e-01,-1.007023e-02,-8.348936e-03,3.999686e-01
160,5.716358e-01,-1.006378e-02,-8.348874e-03,4.011558e-01
161,5.686630e-01,-1.005481e-02,-8.348817e-03,4.023592e-01
162,5.650977e-01,-1.004405e-02,-8.348753e-03,4.035767e-01
163,5.612544e-01,-1.003247e-02,-8.348710e-03,4.048061e-01
164,5.574699e-01,-1.002110e-02,-8.348688e-03,4.060446e-01
165,5.540600e-01,-1.001087e-02,-8.348687e-03,4.072897e-01
166,5.512781e-01,-1.000255e-02,-8.348714e-03,4.085389e-01
167,5.492792e-01,-9.996590e-03,-8.348752e-03,4.097903e-01
168,5.480986e-01,-9.993116e-03,-8.348820e-03,4.110423e-01
169,5.476569e-01,-9.991875e-03,-8.348904e-03,4.122938e-01
170,5.477917e-01,-9.992354e-03,-8.348979e-03,4.135443e-01
171,5.483000e-01,-9.993959e-03,-8.349058e-03,4.147935e-01
172,5.489765e-01,-9.996067e-03,-8.349138e-03,4.160412e-01
173,5.496442e-01,-9.998138e-03,-8.349206e-03,4.172875e-01
174,5.501743e-01,-9.999779e-03,-8.349256e-03,4.185321e-01
175,5.504892e-01,-1.000077e-02,-8.349305e-03,4.197749e-01
176,5.505463e-01,-1.000097e-02,-8.349335e-03,4.210155e-01
177,5.503101e-01,-1.000031e-02,-8.349376e-03,4.222535e-01
178,5.497327e-01,-9.998603e-03,-8.349405e-03,4.234883e-01
179,5.487562e-01,-9.995673e-03,-8.349404e-03,4.247194e-01
180,5.473388e-01,-9.991392e-03,-8.349376e-03,4.259464e-01
181,5.454908e-01,-9.985814e-03,-8.349341e-03,4.271685e-01
182,5.432984e-01,-9.979197e-03,-8.349302e-03,4.283850e-01
183,5.409152e-01,-9.972026e-03,-8.349280e-03,4.295952e-01
184,5.385179e-01,-9.964824e-03,-8.349270e-03,4.307981e-01
185,5.362514e-01,-9.958012e-03,-8.349258e-03,4.319929e-01
186,5.341973e-01,-9.951832e-03,-8.349240e-03,4.331787e-01
187,5.323871e-01,-9.946375e-03,-8.349214e-03,4.343549e-01
188,5.308479e-01,-9.941716e-03,-8.349172e-03,4.355210e-01
189,5.296430e-01,-9.938097e-03,-8.349168e-03,4.366767e-01
190,5.288758e-01,-9.935815e-03,-8.349188e-03,4.378219e-01
191,5.286534e-01,-9.935182e-03,-8.349221e-03,4.389568e-01
192,5.290361e-01,-9.936362e-03,-8.349254e-03,4.400822e-01
193,5.300043e-01,-9.939304e-03,-8.349291e-03,4.411988e-01
194,5.314594e-01,-9.943755e-03,-8.349377e-03,4.423080e-01
195,5.332473e-01,-9.949210e-03,-8.349468e-03,4.434114e-01
196,5.351893e-01,-9.955137e-03,-8.349569e-03,4.445106e-01
197,5.371106e-01,-9.960987e-03,-8.349655e-03,4.456072e-01
198,5.388687e-01,-9.966356e-03,-8.349750e-03,4.467029e-01
199,5.403789e-01,-9.970972e-03,-8.349835e-03,4.477991e-01
200,5.416287e-01,-9.974784e-03,-8.349898e-03,4.488972e-01
201,5.426705e-01,-9.977957e-03,-8.349945e-03,4.499982e-01
202,5.435937e-01,-9.980775e-03,-8.349994e-03,4.511031e-01
203,5.444888e-01,-9.983506e-03,-8.350039e-03,4.522126e-01
204,5.454181e-01,-9.986343e-03,-8.350088e-03,4.533276e-01
205,5.464012e-01,-9.989359e-03,-8.350156e-03,4.544486e-01
206,5.474151e-01,-9.992505e-03,-8.350260e-03,4.555761e-01
207,5.484046e-01,-9.995578e-03,-8.350365e-03,4.567107e-01
208,5.492983e-01,-9.998360e-03,-8.350465e-03,4.578525e-01
209,5.500289e-01,-1.000066e-02,-8.350571e-03,4.590018e-01
210,5.505555e-01,-1.000236e-02,-8.350696e-03,4.601587e-01
211,5.508858e-01,-1.000347e-02,-8.350814e-03,4.613230e-01
212,5.510893e-01,-1.000418e-02,-8.350913e-03,4.624946e-01
213,5.512909e-01,-1.000486e-02,-8.350985e-03,4.636734e-01
214,5.516337e-01,-1.000596e-02,-8.351056e-03,4.648594e-01
215,5.522159e-01,-1.000778e-02,-8.351134e-03,4.660526e-01
216,5.530285e-01,-1.001032e-02,-8.351231e-03,4.672536e-01
217,5.539306e-01,-1.001312e-02,-8.351330e-03,4.684627e-01
218,5.546795e-01,-1.001546e-02,-8.351422e-03,4.696809e-01
219,5.550025e-01,-1.001651e-02,-8.351505e-03,4.709088e-01
220,5.546724e-01,-1.001562e-02,-8.351607e-03,4.721469e-01
221,5.535599e-01,-1.001236e-02,-8.351682e-03,4.733954e-01
222,5.516517e-01,-1.000668e-02,-8.351721e-03,4.746540e-01
223,5.490459e-01,-9.998870e-03,-8.351732e-03,4.759221e-01
224,5.459318e-01,-9.989514e-03,-8.351719e-03,4.771987e-01
225,5.425576e-01,-9.979361e-03,-8.351688e-03,4.784825e-01
226,5.391858e-01,-9.969216e-03,-8.351659e-03,4.797721e-01
227,5.360456e-01,-9.959779e-03,-8.351642e-03,4.810661e-01
228,5.332951e-01,-9.951511e-03,-8.351625e-03,4.823632e-01
229,5.310102e-01,-9.944665e-03,-8.351634e-03,4.836626e-01
230,5.292013e-01,-9.939265e-03,-8.351661e-03,4.849635e-01
231,5.278429e-01,-9.935238e-03,-8.351709e-03,4.862654e-01
232,5.268967e-01,-9.932452e-03,-8.351762e-03,4.875682e-01
233,5.263164e-01,-9.930775e-03,-8.351826e-03,4.888715e-01
234,5.260439e-01,-9.930017e-03,-8.351886e-03,4.901754e-01
235,5.260092e-01,-9.929963e-03,-8.351936e-03,4.914797e-01
236,5.261430e-01,-9.930419e-03,-8.351990e-03,4.927843e-01
237,5.263960e-01,-9.931233e-03,-8.352045e-03,4.940891e-01
238,5.267532e-01,-9.932352e-03,-8.352093e-03,4.953938e-01
239,5.272329e-01,-9.933825e-03,-8.352126e-03,4.966984e-01
240,5.278732e-01,-9.935776e-03,-8.352156e-03,4.980026e-01
241,5.287145e-01,-9.938337e-03,-8.352193e-03,4.993064e-01
242,5.297847e-01,-9.941607e-03,-8.352253e-03,5.006101e-01
243,5.310906e-01,-9.945589e-03,-8.352317e-03,5.019142e-01
244,5.326151e-01,-9.950216e-03,-8.352371e-03,5.032194e-01
245,5.343199e-01,-9.955370e-03,-8.352410e-03,5.045267e-01
246,5.361533e-01,-9.960907e-03,-8.352447e-03,5.058375e-01
247,5.380593e-01,-9.966652e-03,-8.352474e-03,5.071530e-01
248,5.399855e-01,-9.972471e-03,-8.352514e-03,5.084746e-01
249,5.418869e-01,-9.978215e-03,-8.352555e-03,5.098037e-01
250,5.437263e-01,-9.983762e-03,-8.352583e-03,5.111415e-01
251,5.454735e-01,-9.989031e-03,-8.352611e-03,5.124887e-01
252,5.471060e-01,-9.993953e-03,-8.352635e-03,5.138460e-01
253,5.486130e-01,-9.998521e-03,-8.352682e-03,5.152135e-01
254,5.499984e-01,-1.000271e-02,-8.352715e-03,5.165912e-01
255,5.512784e-01,-1.000656e-02,-8.352725e-03,5.179788e-01
256,5.524701e-01,-1.001014e-02,-8.352729e-03,5.193756e-01
257,5.535690e-01,-1.001344e-02,-8.352737e-03,5.207811e-01
258,5.545257e-01,-1.001633e-02,-8.352755e-03,5.221944e-01
259,5.552297e-01,-1.001850e-02,-8.352808e-03,5.236147e-01
260,5.555151e-01,-1.001943e-02,-8.352886e-03,5.250410e-01
261,5.551911e-01,-1.001854e-02,-8.352964e-03,5.264720e-01
262,5.540915e-01,-1.001533e-02,-8.353051e-03,5.279061e-01
263,5.521276e-01,-1.000949e-02,-8.353106e-03,5.293414e-01
264,5.493275e-01,-1.000110e-02,-8.353120e-03,5.307754e-01
265,5.458458e-01,-9.990645e-03,-8.353107e-03,5.322053e-01
266,5.419440e-01,-9.978900e-03,-8.353068e-03,5.336283e-01
267,5.379447e-01,-9.966855e-03,-8.353021e-03,5.350416e-01
268,5.341754e-01,-9.955518e-03,-8.352992e-03,5.364427e-01
269,5.309134e-01,-9.945727e-03,-8.352987e-03,5.378300e-01
270,5.283460e-01,-9.938036e-03,-8.352998e-03,5.392023e-01
271,5.265600e-01,-9.932694e-03,-8.353014e-03,5.405597e-01
272,5.255637e-01,-9.929719e-03,-8.353028e-03,5.419027e-01
273,5.253262e-01,-9.929027e-03,-8.353049e-03,5.432328e-01
274,5.258086e-01,-9.930483e-03,-8.353057e-03,5.445515e-01
275,5.269717e-01,-9.933978e-03,-8.353063e-03,5.458609e-01
276,5.287671e-01,-9.939368e-03,-8.353067e-03,5.471630e-01
277,5.311271e-01,-9.946494e-03,-8.353112e-03,5.484598e-01
278,5.339642e-01,-9.955061e-03,-8.353168e-03,5.497532e-01
279,5.371760e-01,-9.964779e-03,-8.353251e-03,5.510449e-01
280,5.406435e-01,-9.975276e-03,-8.353346e-03,5.523365e-01
281,5.442161e-01,-9.986080e-03,-8.353431e-03,5.536291e-01
282,5.476964e-01,-9.996594e-03,-8.353505e-03,5.549236e-01
283,5.508421e-01,-1.000607e-02,-8.353546e-03,5.562207e-01
284,5.533983e-01,-1.001380e-02,-8.353603e-03,5.575204e-01
285,5.551442e-01,-1.001908e-02,-8.353644e-03,5.588226e-01
286,5.559334e-01,-1.002145e-02,-8.353651e-03,5.601266e-01
287,5.557140e-01,-1.002077e-02,-8.353627e-03,5.614316e-01
288,5.545295e-01,-1.001718e-02,-8.353593e-03,5.627359e-01
289,5.525091e-01,-1.001106e-02,-8.353530e-03,5.640379e-01
290,5.498515e-01,-1.000301e-02,-8.353459e-03,5.653355e-01
291,5.468047e-01,-9.993817e-03,-8.353403e-03,5.666266e-01
292,5.436401e-01,-9.984255e-03,-8.353335e-03,5.679090e-01
293,5.406233e-01,-9.975154e-03,-8.353284e-03,5.691808e-01
294,5.379874e-01,-9.967214e-03,-8.353252e-03,5.704402e-01
295,5.359106e-01,-9.960970e-03,-8.353238e-03,5.716860e-01
296,5.344991e-01,-9.956736e-03,-8.353239e-03,5.729175e-01
297,5.337747e-01,-9.954570e-03,-8.353246e-03,5.741345e-01
298,5.336717e-01,-9.954271e-03,-8.353256e-03,5.753374e-01
299,5.340488e-01,-9.955410e-03,-8.353263e-03,5.765266e-01
300,6.004484e-01,-9.956770e-03,-8.155425e-03,5.777783e-01
301,6.004924e-01,-9.956932e-03,-8.155455e-03,5.790265e-01
302,5.999983e-01,-9.955453e-03,-8.155458e-03,5.802716e-01
303,5.989178e-01,-9.952208e-03,-8.155455e-03,5.815138e-01
304,5.973006e-01,-9.947330e-03,-8.155428e-03,5.827528e-01
305,5.952921e-01,-9.941250e-03,-8.155374e-03,5.839881e-01
306,5.931156e-01,-9.934650e-03,-8.155304e-03,5.852188e-01
307,5.910375e-01,-9.928360e-03,-8.155247e-03,5.864440e-01
308,5.893184e-01,-9.923163e-03,-8.155208e-03,5.876628e-01
309,5.881580e-01,-9.919663e-03,-8.155189e-03,5.888744e-01
310,5.876518e-01,-9.918189e-03,-8.155234e-03,5.900784e-01
311,5.877771e-01,-9.918625e-03,-8.155294e-03,5.912745e-01
312,5.884151e-01,-9.920613e-03,-8.155368e-03,5.924629e-01
313,5.893968e-01,-9.923633e-03,-8.155443e-03,5.936438e-01
314,5.905525e-01,-9.927167e-03,-8.155509e-03,5.948177e-01
315,5.917431e-01,-9.930794e-03,-8.155565e-03,5.959854e-01
316,5.928689e-01,-9.934228e-03,-8.155621e-03,5.971476e-01
317,5.938630e-01,-9.937277e-03,-8.155688e-03,5.983053e-01
318,5.946847e-01,-9.939792e-03,-8.155738e-03,5.994594e-01
319,5.953246e-01,-9.941741e-03,-8.155768e-03,6.006113e-01
320,5.958189e-01,-9.943226e-03,-8.155769e-03,6.017621e-01
321,5.962573e-01,-9.944517e-03,-8.155745e-03,6.029133e-01
322,5.967563e-01,-9.945983e-03,-8.155714e-03,6.040662e-01
323,5.973939e-01,-9.947889e-03,-8.155707e-03,6.052219e-01
324,5.981402e-01,-9.950114e-03,-8.155693e-03,6.063817e-01
325,5.988474e-01,-9.952247e-03,-8.155705e-03,6.075465e-01
326,5.993175e-01,-9.953636e-03,-8.155684e-03,6.087169e-01
327,5.993976e-01,-9.953817e-03,-8.155624e-03,6.098933e-01
328,5.990369e-01,-9.952654e-03,-8.155543e-03,6.110756e-01
329,5.982834e-01,-9.950300e-03,-8.155450e-03,6.122635e-01
330,5.972409e-01,-9.947100e-03,-8.155377e-03,6.134564e-01
331,5.960145e-01,-9.943365e-03,-8.155321e-03,6.146536e-01
332,5.946677e-01,-9.939290e-03,-8.155287e-03,6.158544e-01
333,5.931971e-01,-9.934882e-03,-8.155290e-03,6.170579e-01
334,5.915310e-01,-9.929902e-03,-8.155309e-03,6.182633e-01
335,5.895537e-01,-9.923984e-03,-8.155323e-03,6.194698e-01
336,5.871518e-01,-9.916774e-03,-8.155319e-03,6.206763e-01
337,5.842706e-01,-9.908123e-03,-8.155311e-03,6.218818e-01
338,5.809645e-01,-9.898190e-03,-8.155297e-03,6.230849e-01
339,5.774208e-01,-9.887529e-03,-8.155266e-03,6.242842e-01
340,5.739437e-01,-9.877041e-03,-8.155210e-03,6.254781e-01
341,5.708968e-01,-9.867866e-03,-8.155175e-03,6.266652e-01
342,5.686181e-01,-9.861011e-03,-8.155157e-03,6.278442e-01
343,5.673360e-01,-9.857149e-03,-8.155141e-03,6.290146e-01
344,5.671211e-01,-9.856519e-03,-8.155155e-03,6.301761e-01
