TimeStep,Temp,PotEnergy,TotEnergy,MeanSqDisp
0,6.981684e-01,-6.762828e-04,-5.808698e-04,7.245688e-03
1,6.926451e-01,-6.755170e-04,-5.808589e-04,1.447241e-02
2,6.833486e-01,-6.742284e-04,-5.808407e-04,2.166072e-02
3,6.701558e-01,-6.724001e-04,-5.808154e-04,2.879028e-02
4,6.529218e-01,-6.700125e-04,-5.807830e-04,3.583942e-02
5,6.315112e-01,-6.670484e-04,-5.807450e-04,4.278475e-02
6,6.058452e-01,-6.634997e-04,-5.807038e-04,4.960092e-02
7,5.759658e-01,-6.593744e-04,-5.806619e-04,5.626041e-02
8,5.421169e-01,-6.547076e-04,-5.806209e-04,6.273365e-02
9,5.048333e-01,-6.495731e-04,-5.805816e-04,6.898946e-02
10,4.650164e-01,-6.440938e-04,-5.805438e-04,7.499581e-02
11,4.239601e-01,-6.384473e-04,-5.805081e-04,8.072118e-02
12,3.832905e-01,-6.328564e-04,-5.804753e-04,8.613633e-02
13,3.448037e-01,-6.275684e-04,-5.804469e-04,9.121630e-02
14,3.102303e-01,-6.228213e-04,-5.804247e-04,9.594236e-02
15,2.809924e-01,-6.188107e-04,-5.804098e-04,1.003034e-01
16,2.580251e-01,-6.156643e-04,-5.804021e-04,1.042969e-01
17,2.416989e-01,-6.134320e-04,-5.804010e-04,1.079285e-01
18,2.318463e-01,-6.120895e-04,-5.804050e-04,1.112116e-01
19,2.278625e-01,-6.115527e-04,-5.804126e-04,1.141658e-01
20,2.288439e-01,-6.116966e-04,-5.804224e-04,1.168155e-01
21,2.337308e-01,-6.123752e-04,-5.804331e-04,1.191880e-01
22,2.414321e-01,-6.134382e-04,-5.804437e-04,1.213121e-01
23,2.509200e-01,-6.147447e-04,-5.804536e-04,1.232167e-01
24,2.612924e-01,-6.161710e-04,-5.804623e-04,1.249295e-01
25,2.718058e-01,-6.176154e-04,-5.804699e-04,1.264764e-01
26,2.818843e-01,-6.189993e-04,-5.804764e-04,1.278809e-01
27,2.911128e-01,-6.202659e-04,-5.804819e-04,1.291636e-01
28,2.992198e-01,-6.213781e-04,-5.804862e-04,1.303422e-01
29,3.060575e-01,-6.223163e-04,-5.804900e-04,1.314314e-01
30,3.115822e-01,-6.230745e-04,-5.804931e-04,1.324431e-01
31,3.158349e-01,-6.236584e-04,-5.804958e-04,1.333866e-01
32,3.189230e-01,-6.240828e-04,-5.804982e-04,1.342689e-01
33,3.210019e-01,-6.243692e-04,-5.805005e-04,1.350950e-01
34,3.222564e-01,-6.245429e-04,-5.805028e-04,1.358682e-01
35,3.228840e-01,-6.246311e-04,-5.805052e-04,1.365906e-01
36,3.230791e-01,-6.246604e-04,-5.805078e-04,1.372633e-01
37,3.230211e-01,-6.246552e-04,-5.805105e-04,1.378870e-01
38,3.228653e-01,-6.246367e-04,-5.805134e-04,1.384618e-01
39,3.227375e-01,-6.246224e-04,-5.805165e-04,1.389878e-01
40,3.227322e-01,-6.246252e-04,-5.805200e-04,1.394652e-01
41,3.229139e-01,-6.246537e-04,-5.805237e-04,1.398943e-01
42,3.233206e-01,-6.247132e-04,-5.805276e-04,1.402757e-01
43,3.239691e-01,-6.248057e-04,-5.805315e-04,1.406102e-01
44,3.248598e-01,-6.249314e-04,-5.805355e-04,1.408989e-01
45,3.259812e-01,-6.250888e-04,-5.805396e-04,1.411432e-01
46,3.273141e-01,-6.252751e-04,-5.805438e-04,1.413446e-01
47,3.288352e-01,-6.254870e-04,-5.805478e-04,1.415050e-01
48,3.305214e-01,-6.257213e-04,-5.805517e-04,1.416263e-01
49,3.323524e-01,-6.259751e-04,-5.805552e-04,1.417105e-01
50,3.343120e-01,-6.262464e-04,-5.805587e-04,1.417598e-01
51,3.363878e-01,-6.265334e-04,-5.805620e-04,1.417766e-01
52,3.385692e-01,-6.268348e-04,-5.805653e-04,1.417630e-01
53,3.408458e-01,-6.271489e-04,-5.805683e-04,1.417217e-01
54,3.432053e-01,-6.274742e-04,-5.805712e-04,1.416550e-01
55,3.456323e-01,-6.278088e-04,-5.805740e-04,1.415656e-01
56,3.481058e-01,-6.281495e-04,-5.805768e-04,1.414562e-01
57,3.505985e-01,-6.284928e-04,-5.805793e-04,1.413295e-01
58,3.530768e-01,-6.288339e-04,-5.805818e-04,1.411883e-01
59,3.555013e-01,-6.291675e-04,-5.805841e-04,1.410352e-01
60,3.578304e-01,-6.294879e-04,-5.805862e-04,1.408730e-01
61,3.600227e-01,-6.297893e-04,-5.805879e-04,1.407042e-01
62,3.620413e-01,-6.300666e-04,-5.805894e-04,1.405312e-01
63,3.638562e-01,-6.303159e-04,-5.805906e-04,1.403562e-01
64,3.654463e-01,-6.305339e-04,-5.805914e-04,1.401810e-01
65,3.668007e-01,-6.307195e-04,-5.805919e-04,1.400073e-01
66,3.679190e-01,-6.308727e-04,-5.805923e-04,1.398362e-01
67,3.688121e-01,-6.309948e-04,-5.805923e-04,1.396689e-01
68,3.695012e-01,-6.310889e-04,-5.805922e-04,1.395058e-01
69,3.700161e-01,-6.311591e-04,-5.805920e-04,1.393476e-01
70,3.703917e-01,-6.312103e-04,-5.805919e-04,1.391943e-01
71,3.706640e-01,-6.312473e-04,-5.805916e-04,1.390460e-01
72,3.708660e-01,-6.312745e-04,-5.805913e-04,1.389026e-01
73,3.710246e-01,-6.312958e-04,-5.805909e-04,1.387641e-01
74,3.711589e-01,-6.313137e-04,-5.805905e-04,1.386302e-01
75,3.712800e-01,-6.313298e-04,-5.805900e-04,1.385009e-01
76,3.713911e-01,-6.313445e-04,-5.805895e-04,1.383761e-01
77,3.714891e-01,-6.313574e-04,-5.805890e-04,1.382556e-01
78,3.715659e-01,-6.313673e-04,-5.805884e-04,1.381396e-01
79,3.716107e-01,-6.313727e-04,-5.805877e-04,1.380279e-01
80,3.716127e-01,-6.313725e-04,-5.805872e-04,1.379205e-01
81,3.715636e-01,-6.313651e-04,-5.805865e-04,1.378171e-01
82,3.714612e-01,-6.313503e-04,-5.805857e-04,1.377177e-01
83,3.713100e-01,-6.313286e-04,-5.805847e-04,1.376219e-01
84,3.711223e-01,-6.313018e-04,-5.805836e-04,1.375294e-01
85,3.709155e-01,-6.312726e-04,-5.805826e-04,1.374397e-01
86,3.707089e-01,-6.312435e-04,-5.805818e-04,1.373524e-01
87,3.705210e-01,-6.312169e-04,-5.805809e-04,1.372670e-01
88,3.703664e-01,-6.311949e-04,-5.805799e-04,1.371831e-01
89,3.702551e-01,-6.311788e-04,-5.805790e-04,1.371004e-01
90,3.701929e-01,-6.311693e-04,-5.805780e-04,1.370187e-01
91,3.701811e-01,-6.311666e-04,-5.805769e-04,1.369377e-01
92,3.702179e-01,-6.311704e-04,-5.805757e-04,1.368572e-01
93,3.702986e-01,-6.311803e-04,-5.805746e-04,1.367774e-01
94,3.704164e-01,-6.311954e-04,-5.805736e-04,1.366983e-01
95,3.705631e-01,-6.312143e-04,-5.805725e-04,1.366199e-01
96,3.707304e-01,-6.312361e-04,-5.805714e-04,1.365424e-01
97,3.709112e-01,-6.312595e-04,-5.805701e-04,1.364659e-01
98,3.711010e-01,-6.312840e-04,-5.805687e-04,1.363908e-01
99,3.712993e-01,-6.313097e-04,-5.805673e-04,1.363170e-01
100,6.987731e-01,-6.311398e-04,-5.356442e-04,1.363082e-01
101,6.945887e-01,-6.305653e-04,-5.356415e-04,1.364799e-01
102,6.876028e-01,-6.296075e-04,-5.356384e-04,1.368259e-01
103,6.780673e-01,-6.283009e-04,-5.356350e-04,1.373350e-01
104,6.663263e-01,-6.266924e-04,-5.356310e-04,1.379926e-01
105,6.528100e-01,-6.248411e-04,-5.356269e-04,1.387806e-01
106,6.380278e-01,-6.228163e-04,-5.356223e-04,1.396788e-01
107,6.225534e-01,-6.206967e-04,-5.356174e-04,1.406653e-01
108,6.069953e-01,-6.185656e-04,-5.356126e-04,1.417180e-01
109,5.919471e-01,-6.165051e-04,-5.356085e-04,1.428154e-01
110,5.779260e-01,-6.145858e-04,-5.356054e-04,1.439374e-01
111,5.653214e-01,-6.128616e-04,-5.356037e-04,1.450662e-01
112,5.543741e-01,-6.113650e-04,-5.356032e-04,1.461863e-01
113,5.451883e-01,-6.101101e-04,-5.356037e-04,1.472855e-01
114,5.377615e-01,-6.090964e-04,-5.356050e-04,1.483541e-01
115,5.320128e-01,-6.083126e-04,-5.356068e-04,1.493849e-01
116,5.278020e-01,-6.077395e-04,-5.356091e-04,1.503732e-01
117,5.249436e-01,-6.073515e-04,-5.356117e-04,1.513161e-01
118,5.232245e-01,-6.071193e-04,-5.356145e-04,1.522125e-01
119,5.224262e-01,-6.070132e-04,-5.356175e-04,1.530626e-01
120,5.223431e-01,-6.070046e-04,-5.356202e-04,1.538673e-01
121,5.227940e-01,-6.070685e-04,-5.356225e-04,1.546286e-01
122,5.236214e-01,-6.071837e-04,-5.356246e-04,1.553487e-01
123,5.246889e-01,-6.073313e-04,-5.356264e-04,1.560299e-01
124,5.258801e-01,-6.074958e-04,-5.356281e-04,1.566748e-01
125,5.271027e-01,-6.076646e-04,-5.356298e-04,1.572860e-01
126,5.282924e-01,-6.078286e-04,-5.356312e-04,1.578659e-01
127,5.294109e-01,-6.079829e-04,-5.356326e-04,1.584165e-01
128,5.304394e-01,-6.081247e-04,-5.356339e-04,1.589401e-01
129,5.313707e-01,-6.082533e-04,-5.356353e-04,1.594383e-01
130,5.322015e-01,-6.083687e-04,-5.356370e-04,1.599127e-01
131,5.329235e-01,-6.084693e-04,-5.356390e-04,1.603648e-01
132,5.335160e-01,-6.085523e-04,-5.356410e-04,1.607961e-01
133,5.339444e-01,-6.086131e-04,-5.356433e-04,1.612075e-01
134,5.341664e-01,-6.086457e-04,-5.356456e-04,1.616000e-01
135,5.341424e-01,-6.086445e-04,-5.356477e-04,1.619744e-01
136,5.338496e-01,-6.086060e-04,-5.356491e-04,1.623311e-01
137,5.332963e-01,-6.085316e-04,-5.356504e-04,1.626699e-01
138,5.325300e-01,-6.084280e-04,-5.356515e-04,1.629906e-01
139,5.316346e-01,-6.083063e-04,-5.356522e-04,1.632926e-01
140,5.307176e-01,-6.081814e-04,-5.356526e-04,1.635749e-01
141,5.298937e-01,-6.080694e-04,-5.356532e-04,1.638367e-01
142,5.292675e-01,-6.079847e-04,-5.356541e-04,1.640772e-01
143,5.289185e-01,-6.079381e-04,-5.356551e-04,1.642957e-01
144,5.288888e-01,-6.079353e-04,-5.356563e-04,1.644922e-01
145,5.291773e-01,-6.079763e-04,-5.356579e-04,1.646667e-01
146,5.297429e-01,-6.080555e-04,-5.356599e-04,1.648199e-01
147,5.305181e-01,-6.081634e-04,-5.356618e-04,1.649525e-01
148,5.314276e-01,-6.082895e-04,-5.356637e-04,1.650657e-01
149,5.324048e-01,-6.084249e-04,-5.356655e-04,1.651606e-01
150,5.334021e-01,-6.085627e-04,-5.356670e-04,1.652386e-01
151,5.343926e-01,-6.086994e-04,-5.356683e-04,1.653008e-01
152,5.353679e-01,-6.088337e-04,-5.356694e-04,1.653483e-01
153,5.363312e-01,-6.089663e-04,-5.356703e-04,1.653822e-01
154,5.372902e-01,-6.090985e-04,-5.356714e-04,1.654036e-01
155,5.382507e-01,-6.092307e-04,-5.356724e-04,1.654134e-01
156,5.392130e-01,-6.093630e-04,-5.356731e-04,1.654126e-01
157,5.401731e-01,-6.094948e-04,-5.356737e-04,1.654022e-01
158,5.411240e-01,-6.096254e-04,-5.356744e-04,1.653830e-01
159,5.420558e-01,-6.097537e-04,-5.356754e-04,1.653560e-01
160,5.429555e-01,-6.098778e-04,-5.356765e-04,1.653221e-01
161,5.438075e-01,-6.099952e-04,-5.356775e-04,1.652821e-01
162,5.445977e-01,-6.101041e-04,-5.356783e-04,1.652367e-01
163,5.453193e-01,-6.102034e-04,-5.356791e-04,1.651867e-01
164,5.459741e-01,-6.102935e-04,-5.356797e-04,1.651328e-01
165,5.465691e-01,-6.103753e-04,-5.356802e-04,1.650754e-01
166,5.471107e-01,-6.104496e-04,-5.356804e-04,1.650152e-01
167,5.476005e-01,-6.105168e-04,-5.356808e-04,1.649525e-01
168,5.480361e-01,-6.105765e-04,-5.356808e-04,1.648879e-01
169,5.484146e-01,-6.106283e-04,-5.356810e-04,1.648217e-01
170,5.487358e-01,-6.106722e-04,-5.356810e-04,1.647542e-01
171,5.490030e-01,-6.107089e-04,-5.356811e-04,1.646858e-01
172,5.492209e-01,-6.107387e-04,-5.356812e-04,1.646166e-01
173,5.493900e-01,-6.107617e-04,-5.356811e-04,1.645468e-01
174,5.495048e-01,-6.107772e-04,-5.356808e-04,1.644766e-01
175,5.495583e-01,-6.107841e-04,-5.356805e-04,1.644058e-01
176,5.495510e-01,-6.107825e-04,-5.356798e-04,1.643347e-01
177,5.494971e-01,-6.107741e-04,-5.356788e-04,1.642629e-01
178,5.494262e-01,-6.107630e-04,-5.356775e-04,1.641905e-01
179,5.493778e-01,-6.107550e-04,-5.356760e-04,1.641171e-01
180,5.493940e-01,-6.107559e-04,-5.356747e-04,1.640426e-01
181,5.495101e-01,-6.107706e-04,-5.356736e-04,1.639670e-01
182,5.497474e-01,-6.108017e-04,-5.356723e-04,1.638903e-01
183,5.501091e-01,-6.108501e-04,-5.356712e-04,1.638128e-01
184,5.505802e-01,-6.109136e-04,-5.356703e-04,1.637348e-01
185,5.511313e-01,-6.109882e-04,-5.356696e-04,1.636570e-01
186,5.517244e-01,-6.110685e-04,-5.356689e-04,1.635798e-01
187,5.523208e-01,-6.111493e-04,-5.356682e-04,1.635040e-01
188,5.528874e-01,-6.112258e-04,-5.356672e-04,1.634303e-01
189,5.533976e-01,-6.112945e-04,-5.356662e-04,1.633592e-01
190,5.538282e-01,-6.113524e-04,-5.356652e-04,1.632912e-01
191,5.541556e-01,-6.113960e-04,-5.356641e-04,1.632269e-01
192,5.543581e-01,-6.114227e-04,-5.356631e-04,1.631666e-01
193,5.544235e-01,-6.114304e-04,-5.356618e-04,1.631103e-01
194,5.543570e-01,-6.114196e-04,-5.356602e-04,1.630581e-01
195,5.541842e-01,-6.113943e-04,-5.356585e-04,1.630099e-01
196,5.539455e-01,-6.113602e-04,-5.356570e-04,1.629654e-01
197,5.536811e-01,-6.113228e-04,-5.356557e-04,1.629242e-01
198,5.534181e-01,-6.112862e-04,-5.356550e-04,1.628859e-01
199,5.531651e-01,-6.112510e-04,-5.356544e-04,1.628502e-01
200,6.988996e-01,-6.110997e-04,-5.155868e-04,1.628463e-01
201,6.961976e-01,-6.107290e-04,-5.155854e-04,1.629111e-01
202,6.920261e-01,-6.101570e-04,-5.155834e-04,1.630412e-01
203,6.866152e-01,-6.094149e-04,-5.155808e-04,1.632315e-01
204,6.802754e-01,-6.085454e-04,-5.155777e-04,1.634753e-01
205,6.733633e-01,-6.075976e-04,-5.155746e-04,1.637649e-01
206,6.662379e-01,-6.066210e-04,-5.155717e-04,1.640920e-01
207,6.592191e-01,-6.056596e-04,-5.155696e-04,1.644482e-01
208,6.525587e-01,-6.047477e-04,-5.155679e-04,1.648253e-01
209,6.464301e-01,-6.039089e-04,-5.155666e-04,1.652159e-01
210,6.409354e-01,-6.031571e-04,-5.155657e-04,1.656131e-01
211,6.361244e-01,-6.024991e-04,-5.155652e-04,1.660112e-01
212,6.320179e-01,-6.019373e-04,-5.155645e-04,1.664053e-01
213,6.286311e-01,-6.014735e-04,-5.155636e-04,1.667911e-01
214,6.259883e-01,-6.011114e-04,-5.155627e-04,1.671655e-01
215,6.241152e-01,-6.008550e-04,-5.155623e-04,1.675259e-01
216,6.230108e-01,-6.007041e-04,-5.155623e-04,1.678709e-01
217,6.226251e-01,-6.006520e-04,-5.155629e-04,1.681998e-01
218,6.228581e-01,-6.006849e-04,-5.155640e-04,1.685127e-01
219,6.235797e-01,-6.007848e-04,-5.155652e-04,1.688106e-01
220,6.246518e-01,-6.009329e-04,-5.155668e-04,1.690948e-01
221,6.259424e-01,-6.011107e-04,-5.155683e-04,1.693671e-01
222,6.273297e-01,-6.013021e-04,-5.155701e-04,1.696294e-01
223,6.286991e-01,-6.014911e-04,-5.155719e-04,1.698838e-01
224,6.299379e-01,-6.016625e-04,-5.155741e-04,1.701321e-01
225,6.309338e-01,-6.018006e-04,-5.155761e-04,1.703762e-01
226,6.315837e-01,-6.018913e-04,-5.155780e-04,1.706174e-01
227,6.318088e-01,-6.019234e-04,-5.155793e-04,1.708569e-01
228,6.315736e-01,-6.018923e-04,-5.155803e-04,1.710950e-01
229,6.308979e-01,-6.018004e-04,-5.155807e-04,1.713316e-01
230,6.298566e-01,-6.016580e-04,-5.155806e-04,1.715661e-01
231,6.285622e-01,-6.014808e-04,-5.155804e-04,1.717972e-01
232,6.271396e-01,-6.012864e-04,-5.155804e-04,1.720235e-01
233,6.257060e-01,-6.010904e-04,-5.155803e-04,1.722435e-01
234,6.243604e-01,-6.009066e-04,-5.155804e-04,1.724556e-01
235,6.231816e-01,-6.007454e-04,-5.155803e-04,1.726583e-01
236,6.222291e-01,-6.006156e-04,-5.155807e-04,1.728505e-01
237,6.215442e-01,-6.005225e-04,-5.155811e-04,1.730312e-01
238,6.211465e-01,-6.004687e-04,-5.155817e-04,1.731997e-01
239,6.210339e-01,-6.004545e-04,-5.155829e-04,1.733558e-01
240,6.211879e-01,-6.004769e-04,-5.155842e-04,1.734994e-01
241,6.215854e-01,-6.005328e-04,-5.155858e-04,1.736310e-01
242,6.222069e-01,-6.006193e-04,-5.155873e-04,1.737510e-01
243,6.230342e-01,-6.007340e-04,-5.155890e-04,1.738602e-01
244,6.240376e-01,-6.008732e-04,-5.155911e-04,1.739597e-01
245,6.251612e-01,-6.010289e-04,-5.155933e-04,1.740508e-01
246,6.263217e-01,-6.011901e-04,-5.155958e-04,1.741347e-01
247,6.274215e-01,-6.013429e-04,-5.155984e-04,1.742130e-01
248,6.283735e-01,-6.014755e-04,-5.156008e-04,1.742869e-01
249,6.291235e-01,-6.015796e-04,-5.156024e-04,1.743578e-01
250,6.296581e-01,-6.016538e-04,-5.156036e-04,1.744264e-01
251,6.299949e-01,-6.017008e-04,-5.156046e-04,1.744934e-01
252,6.301614e-01,-6.017245e-04,-5.156055e-04,1.745593e-01
253,6.301748e-01,-6.017273e-04,-5.156064e-04,1.746243e-01
254,6.300343e-01,-6.017089e-04,-5.156073e-04,1.746884e-01
255,6.297321e-01,-6.016681e-04,-5.156078e-04,1.747517e-01
256,6.292721e-01,-6.016052e-04,-5.156078e-04,1.748138e-01
257,6.286800e-01,-6.015239e-04,-5.156074e-04,1.748744e-01
258,6.279971e-01,-6.014301e-04,-5.156069e-04,1.749329e-01
259,6.272624e-01,-6.013295e-04,-5.156067e-04,1.749885e-01
260,6.265027e-01,-6.012255e-04,-5.156065e-04,1.750406e-01
261,6.257357e-01,-6.011200e-04,-5.156059e-04,1.750884e-01
262,6.249843e-01,-6.010165e-04,-5.156050e-04,1.751311e-01
263,6.242887e-01,-6.009204e-04,-5.156039e-04,1.751679e-01
264,6.237092e-01,-6.008398e-04,-5.156026e-04,1.751981e-01
265,6.233145e-01,-6.007846e-04,-5.156013e-04,1.752209e-01
266,6.231607e-01,-6.007621e-04,-5.155999e-04,1.752358e-01
267,6.232710e-01,-6.007761e-04,-5.155988e-04,1.752427e-01
268,6.236314e-01,-6.008245e-04,-5.155979e-04,1.752416e-01
269,6.242026e-01,-6.009016e-04,-5.155969e-04,1.752330e-01
270,6.249376e-01,-6.010008e-04,-5.155957e-04,1.752174e-01
271,6.257905e-01,-6.011159e-04,-5.155943e-04,1.751957e-01
272,6.267149e-01,-6.012408e-04,-5.155928e-04,1.751689e-01
273,6.276628e-01,-6.013687e-04,-5.155912e-04,1.751380e-01
274,6.285909e-01,-6.014937e-04,-5.155894e-04,1.751040e-01
275,6.294695e-01,-6.016118e-04,-5.155873e-04,1.750679e-01
276,6.302867e-01,-6.017218e-04,-5.155856e-04,1.750306e-01
277,6.310440e-01,-6.018238e-04,-5.155842e-04,1.749927e-01
278,6.317495e-01,-6.019189e-04,-5.155828e-04,1.749552e-01
279,6.324114e-01,-6.020082e-04,-5.155817e-04,1.749186e-01
280,6.330327e-01,-6.020924e-04,-5.155810e-04,1.748834e-01
281,6.336065e-01,-6.021705e-04,-5.155807e-04,1.748503e-01
282,6.341150e-01,-6.022399e-04,-5.155805e-04,1.748198e-01
283,6.345344e-01,-6.022969e-04,-5.155803e-04,1.747923e-01
284,6.348436e-01,-6.023390e-04,-5.155802e-04,1.747682e-01
285,6.350305e-01,-6.023646e-04,-5.155801e-04,1.747477e-01
286,6.350917e-01,-6.023732e-04,-5.155804e-04,1.747310e-01
287,6.350270e-01,-6.023647e-04,-5.155807e-04,1.747181e-01
288,6.348351e-01,-6.023390e-04,-5.155813e-04,1.747088e-01
289,6.345142e-01,-6.022958e-04,-5.155820e-04,1.747030e-01
290,6.340728e-01,-6.022358e-04,-5.155822e-04,1.747002e-01
291,6.335429e-01,-6.021633e-04,-5.155821e-04,1.746999e-01
292,6.329880e-01,-6.020868e-04,-5.155815e-04,1.747015e-01
293,6.324959e-01,-6.020188e-04,-5.155807e-04,1.747041e-01
294,6.321582e-01,-6.019721e-04,-5.155802e-04,1.747072e-01
295,6.320428e-01,-6.019561e-04,-5.155800e-04,1.747101e-01
296,6.321732e-01,-6.019743e-04,-5.155804e-04,1.747126e-01
297,6.325236e-01,-6.020232e-04,-5.155814e-04,1.747150e-01
298,6.330322e-01,-6.020939e-04,-5.155826e-04,1.747176e-01
299,6.336238e-01,-6.021759e-04,-5.155837e-04,1.747211e-01
300,6.342296e-01,-6.022595e-04,-5.155845e-04,1.747261e-01
301,6.347936e-01,-6.023372e-04,-5.155851e-04,1.747336e-01
302,6.352679e-01,-6.024024e-04,-5.155855e-04,1.747441e-01
303,6.356071e-01,-6.024491e-04,-5.155859e-04,1.747585e-01
304,6.357695e-01,-6.024713e-04,-5.155859e-04,1.747771e-01
305,6.357245e-01,-6.024647e-04,-5.155855e-04,1.748003e-01
306,6.354591e-01,-6.024278e-04,-5.155848e-04,1.748282e-01
307,6.349791e-01,-6.023617e-04,-5.155843e-04,1.748604e-01
308,6.343071e-01,-6.022695e-04,-5.155839e-04,1.748967e-01
309,6.334803e-01,-6.021563e-04,-5.155838e-04,1.749361e-01
310,6.325487e-01,-6.020286e-04,-5.155833e-04,1.749780e-01
311,6.315693e-01,-6.018943e-04,-5.155829e-04,1.750213e-01
312,6.305989e-01,-6.017615e-04,-5.155827e-04,1.750649e-01
313,6.296886e-01,-6.016371e-04,-5.155827e-04,1.751079e-01
314,6.288828e-01,-6.015270e-04,-5.155828e-04,1.751492e-01
315,6.282191e-01,-6.014366e-04,-5.155830e-04,1.751880e-01
316,6.277243e-01,-6.013695e-04,-5.155836e-04,1.752236e-01
317,6.274069e-01,-6.013266e-04,-5.155840e-04,1.752556e-01
318,6.272533e-01,-6.013061e-04,-5.155845e-04,1.752837e-01
319,6.272281e-01,-6.013032e-04,-5.155851e-04,1.753078e-01
320,6.272819e-01,-6.013113e-04,-5.155859e-04,1.753281e-01
321,6.273635e-01,-6.013231e-04,-5.155865e-04,1.753447e-01
322,6.274346e-01,-6.013334e-04,-5.155871e-04,1.753578e-01
323,6.274810e-01,-6.013400e-04,-5.155873e-04,1.753675e-01
324,6.275145e-01,-6.013447e-04,-5.155874e-04,1.753740e-01
325,6.275656e-01,-6.013514e-04,-5.155872e-04,1.753772e-01
326,6.276713e-01,-6.013655e-04,-5.155868e-04,1.753771e-01
327,6.278629e-01,-6.013915e-04,-5.155866e-04,1.753738e-01
328,6.281531e-01,-6.014312e-04,-5.155867e-04,1.753674e-01
329,6.285221e-01,-6.014822e-04,-5.155872e-04,1.753582e-01
330,6.289109e-01,-6.015361e-04,-5.155880e-04,1.753464e-01
331,6.292338e-01,-6.015811e-04,-5.155888e-04,1.753326e-01
332,6.294084e-01,-6.016055e-04,-5.155894e-04,1.753170e-01
333,6.293908e-01,-6.016031e-04,-5.155894e-04,1.752997e-01
334,6.291939e-01,-6.015755e-04,-5.155887e-04,1.752805e-01
335,6.288843e-01,-6.015321e-04,-5.155877e-04,1.752590e-01
336,6.285612e-01,-6.014867e-04,-5.155864e-04,1.752347e-01
337,6.283289e-01,-6.014542e-04,-5.155856e-04,1.752070e-01
338,6.282722e-01,-6.014457e-04,-5.155849e-04,1.751754e-01
339,6.284416e-01,-6.014687e-04,-5.155848e-04,1.751396e-01
340,6.288537e-01,-6.015252e-04,-5.155849e-04,1.750997e-01
341,6.295041e-01,-6.016143e-04,-5.155852e-04,1.750560e-01
342,6.303801e-01,-6.017343e-04,-5.155854e-04,1.750091e-01
343,6.314590e-01,-6.018821e-04,-5.155857e-04,1.749599e-01
344,6.326961e-01,-6.020517e-04,-5.155863e-04,1.749095e-01
