TimeStep,Temp,PotEnergy,TotEnergy,MeanSqDisp
0,3.999874e-01,-1.075331e-02,-9.553345e-03,5.477226e-03
1,3.999462e-01,-1.075307e-02,-9.553233e-03,1.095428e-02
2,3.998658e-01,-1.075273e-02,-9.553128e-03,1.643094e-02
3,3.997283e-01,-1.075238e-02,-9.553196e-03,2.190689e-02
4,3.995081e-01,-1.075200e-02,-9.553475e-03,2.738167e-02
5,3.991709e-01,-1.075144e-02,-9.553928e-03,3.285459e-02
6,3.986737e-01,-1.075049e-02,-9.554470e-03,3.832473e-02
7,3.979640e-01,-1.074896e-02,-9.555064e-03,4.379081e-02
8,3.969800e-01,-1.074661e-02,-9.555673e-03,4.925115e-02
9,3.956502e-01,-1.074320e-02,-9.556249e-03,5.470363e-02
10,3.938940e-01,-1.073847e-02,-9.556785e-03,6.014554e-02
11,3.916225e-01,-1.073214e-02,-9.557273e-03,6.557357e-02
12,3.887402e-01,-1.072393e-02,-9.557707e-03,7.098370e-02
13,3.851477e-01,-1.071352e-02,-9.558079e-03,7.637114e-02
14,3.807463e-01,-1.070063e-02,-9.558391e-03,8.173022e-02
15,3.754441e-01,-1.068497e-02,-9.558634e-03,8.705441e-02
16,3.691642e-01,-1.066630e-02,-9.558806e-03,9.233619e-02
17,3.618554e-01,-1.064447e-02,-9.558903e-03,9.756716e-02
18,3.535040e-01,-1.061944e-02,-9.558925e-03,1.027380e-01
19,3.441466e-01,-1.059131e-02,-9.558874e-03,1.078386e-01
20,3.338809e-01,-1.056039e-02,-9.558749e-03,1.128582e-01
21,3.228730e-01,-1.052717e-02,-9.558555e-03,1.177858e-01
22,3.113586e-01,-1.049237e-02,-9.558296e-03,1.226104e-01
23,2.996340e-01,-1.045688e-02,-9.557982e-03,1.273213e-01
24,2.880387e-01,-1.042174e-02,-9.557628e-03,1.319087e-01
25,2.769295e-01,-1.038804e-02,-9.557249e-03,1.363640e-01
26,2.666491e-01,-1.035682e-02,-9.556868e-03,1.406804e-01
27,2.574965e-01,-1.032898e-02,-9.556495e-03,1.448528e-01
28,2.497008e-01,-1.030524e-02,-9.556140e-03,1.488787e-01
29,2.434056e-01,-1.028603e-02,-9.555809e-03,1.527574e-01
30,2.386631e-01,-1.027149e-02,-9.555505e-03,1.564908e-01
31,2.354383e-01,-1.026154e-02,-9.555229e-03,1.600824e-01
32,2.336217e-01,-1.025584e-02,-9.554970e-03,1.635376e-01
33,2.330461e-01,-1.025388e-02,-9.554739e-03,1.668631e-01
34,2.335073e-01,-1.025505e-02,-9.554528e-03,1.700665e-01
35,2.347832e-01,-1.025869e-02,-9.554336e-03,1.731563e-01
36,2.366516e-01,-1.026411e-02,-9.554159e-03,1.761408e-01
37,2.389050e-01,-1.027070e-02,-9.553990e-03,1.790286e-01
38,2.413608e-01,-1.027792e-02,-9.553834e-03,1.818280e-01
39,2.438686e-01,-1.028530e-02,-9.553693e-03,1.845465e-01
40,2.463130e-01,-1.029251e-02,-9.553570e-03,1.871915e-01
41,2.486130e-01,-1.029928e-02,-9.553442e-03,1.897692e-01
42,2.507197e-01,-1.030548e-02,-9.553322e-03,1.922856e-01
43,2.526103e-01,-1.031105e-02,-9.553218e-03,1.947456e-01
44,2.542827e-01,-1.031596e-02,-9.553114e-03,1.971539e-01
45,2.557484e-01,-1.032027e-02,-9.553025e-03,1.995142e-01
46,2.570260e-01,-1.032404e-02,-9.552958e-03,2.018301e-01
47,2.581360e-01,-1.032733e-02,-9.552919e-03,2.041045e-01
48,2.590964e-01,-1.033019e-02,-9.552896e-03,2.063402e-01
49,2.599198e-01,-1.033264e-02,-9.552883e-03,2.085393e-01
50,2.606127e-01,-1.033472e-02,-9.552885e-03,2.107041e-01
51,2.611752e-01,-1.033643e-02,-9.552901e-03,2.128362e-01
52,2.616038e-01,-1.033773e-02,-9.552917e-03,2.149373e-01
53,2.618942e-01,-1.033862e-02,-9.552934e-03,2.170086e-01
54,2.620450e-01,-1.033910e-02,-9.552964e-03,2.190513e-01
55,2.620616e-01,-1.033920e-02,-9.553014e-03,2.210661e-01
56,2.619589e-01,-1.033894e-02,-9.553062e-03,2.230537e-01
57,2.617613e-01,-1.033842e-02,-9.553139e-03,2.250147e-01
58,2.615012e-01,-1.033773e-02,-9.553222e-03,2.269492e-01
59,2.612141e-01,-1.033695e-02,-9.553312e-03,2.288575e-01
60,2.609328e-01,-1.033621e-02,-9.553408e-03,2.307397e-01
61,2.606811e-01,-1.033557e-02,-9.553522e-03,2.325960e-01
62,2.604692e-01,-1.033506e-02,-9.553650e-03,2.344266e-01
63,2.602928e-01,-1.033467e-02,-9.553789e-03,2.362316e-01
64,2.601353e-01,-1.033434e-02,-9.553930e-03,2.380113e-01
65,2.599734e-01,-1.033399e-02,-9.554075e-03,2.397658e-01
66,2.597845e-01,-1.033358e-02,-9.554225e-03,2.414954e-01
67,2.595535e-01,-1.033303e-02,-9.554374e-03,2.432002e-01
68,2.592787e-01,-1.033236e-02,-9.554522e-03,2.448803e-01
69,2.589744e-01,-1.033159e-02,-9.554667e-03,2.465355e-01
70,2.586706e-01,-1.033082e-02,-9.554803e-03,2.481659e-01
71,2.584093e-01,-1.033017e-02,-9.554946e-03,2.497714e-01
72,2.582378e-01,-1.032981e-02,-9.555092e-03,2.513519e-01
73,2.582011e-01,-1.032985e-02,-9.555250e-03,2.529074e-01
74,2.583343e-01,-1.033042e-02,-9.555422e-03,2.544381e-01
75,2.586574e-01,-1.033158e-02,-9.555610e-03,2.559443e-01
76,2.591743e-01,-1.033333e-02,-9.555802e-03,2.574265e-01
77,2.598746e-01,-1.033563e-02,-9.556003e-03,2.588853e-01
78,2.607384e-01,-1.033842e-02,-9.556205e-03,2.603217e-01
79,2.617418e-01,-1.034163e-02,-9.556404e-03,2.617365e-01
80,2.628605e-01,-1.034518e-02,-9.556598e-03,2.631308e-01
81,2.640725e-01,-1.034900e-02,-9.556780e-03,2.645059e-01
82,2.653582e-01,-1.035303e-02,-9.556957e-03,2.658629e-01
83,2.666993e-01,-1.035722e-02,-9.557125e-03,2.672032e-01
84,2.680773e-01,-1.036151e-02,-9.557276e-03,2.685280e-01
85,2.694718e-01,-1.036584e-02,-9.557420e-03,2.698387e-01
86,2.708600e-01,-1.037014e-02,-9.557565e-03,2.711366e-01
87,2.722151e-01,-1.037435e-02,-9.557707e-03,2.724230e-01
88,2.735067e-01,-1.037836e-02,-9.557844e-03,2.736992e-01
89,2.747001e-01,-1.038207e-02,-9.557966e-03,2.749663e-01
90,2.757581e-01,-1.038536e-02,-9.558088e-03,2.762255e-01
91,2.766422e-01,-1.038813e-02,-9.558206e-03,2.774778e-01
92,2.773164e-01,-1.039028e-02,-9.558331e-03,2.787238e-01
93,2.777505e-01,-1.039171e-02,-9.558461e-03,2.799643e-01
94,2.779237e-01,-1.039236e-02,-9.558591e-03,2.811996e-01
95,2.778270e-01,-1.039219e-02,-9.558714e-03,2.824297e-01
96,2.774642e-01,-1.039124e-02,-9.558845e-03,2.836547e-01
97,2.768506e-01,-1.038952e-02,-9.558963e-03,2.848740e-01
98,2.760116e-01,-1.038712e-02,-9.559088e-03,2.860872e-01
99,2.749799e-01,-1.038416e-02,-9.559217e-03,2.872935e-01
100,3.982436e-01,-1.037905e-02,-9.184316e-03,2.887547e-01
101,3.956999e-01,-1.037156e-02,-9.184465e-03,2.902365e-01
102,3.924407e-01,-1.036192e-02,-9.184596e-03,2.917361e-01
103,3.885775e-01,-1.035044e-02,-9.184710e-03,2.932503e-01
104,3.842649e-01,-1.033761e-02,-9.184819e-03,2.947756e-01
105,3.796969e-01,-1.032402e-02,-9.184926e-03,2.963079e-01
106,3.750944e-01,-1.031031e-02,-9.185030e-03,2.978432e-01
107,3.706835e-01,-1.029718e-02,-9.185130e-03,2.993777e-01
108,3.666704e-01,-1.028525e-02,-9.185243e-03,3.009075e-01
109,3.632177e-01,-1.027502e-02,-9.185371e-03,3.024294e-01
110,3.604287e-01,-1.026679e-02,-9.185505e-03,3.039409e-01
111,3.583427e-01,-1.026068e-02,-9.185648e-03,3.054400e-01
112,3.569403e-01,-1.025663e-02,-9.185809e-03,3.069254e-01
113,3.561555e-01,-1.025445e-02,-9.185979e-03,3.083965e-01
114,3.558909e-01,-1.025384e-02,-9.186169e-03,3.098532e-01
115,3.560341e-01,-1.025447e-02,-9.186364e-03,3.112960e-01
116,3.564727e-01,-1.025598e-02,-9.186566e-03,3.127256e-01
117,3.571064e-01,-1.025809e-02,-9.186768e-03,3.141431e-01
118,3.578544e-01,-1.026054e-02,-9.186978e-03,3.155496e-01
119,3.586592e-01,-1.026320e-02,-9.187218e-03,3.169463e-01
120,3.594852e-01,-1.026593e-02,-9.187471e-03,3.183346e-01
121,3.603154e-01,-1.026869e-02,-9.187743e-03,3.197157e-01
122,3.611476e-01,-1.027147e-02,-9.188024e-03,3.210907e-01
123,3.619907e-01,-1.027428e-02,-9.188310e-03,3.224608e-01
124,3.628622e-01,-1.027719e-02,-9.188602e-03,3.238271e-01
125,3.637855e-01,-1.028027e-02,-9.188912e-03,3.251907e-01
126,3.647847e-01,-1.028357e-02,-9.189214e-03,3.265525e-01
127,3.658773e-01,-1.028716e-02,-9.189529e-03,3.279135e-01
128,3.670666e-01,-1.029104e-02,-9.189845e-03,3.292748e-01
129,3.683376e-01,-1.029517e-02,-9.190161e-03,3.306372e-01
130,3.696588e-01,-1.029945e-02,-9.190472e-03,3.320018e-01
131,3.709897e-01,-1.030375e-02,-9.190781e-03,3.333695e-01
132,3.722911e-01,-1.030797e-02,-9.191097e-03,3.347410e-01
133,3.735332e-01,-1.031200e-02,-9.191401e-03,3.361171e-01
134,3.746970e-01,-1.031579e-02,-9.191700e-03,3.374984e-01
135,3.757713e-01,-1.031933e-02,-9.192011e-03,3.388854e-01
136,3.767450e-01,-1.032253e-02,-9.192297e-03,3.402785e-01
137,3.775989e-01,-1.032537e-02,-9.192572e-03,3.416779e-01
138,3.783015e-01,-1.032776e-02,-9.192859e-03,3.430837e-01
139,3.788083e-01,-1.032955e-02,-9.193127e-03,3.444960e-01
140,3.790674e-01,-1.033058e-02,-9.193373e-03,3.459148e-01
141,3.790278e-01,-1.033070e-02,-9.193617e-03,3.473396e-01
142,3.786512e-01,-1.032980e-02,-9.193848e-03,3.487701e-01
143,3.779227e-01,-1.032784e-02,-9.194070e-03,3.502055e-01
144,3.768605e-01,-1.032485e-02,-9.194265e-03,3.516449e-01
145,3.755207e-01,-1.032100e-02,-9.194439e-03,3.530871e-01
146,3.739988e-01,-1.031658e-02,-9.194584e-03,3.545308e-01
147,3.724232e-01,-1.031199e-02,-9.194724e-03,3.559746e-01
148,3.709433e-01,-1.030769e-02,-9.194861e-03,3.574173e-01
149,3.697115e-01,-1.030413e-02,-9.194994e-03,3.588575e-01
150,3.688616e-01,-1.030171e-02,-9.195125e-03,3.602943e-01
151,3.684882e-01,-1.030075e-02,-9.195284e-03,3.617272e-01
152,3.686304e-01,-1.030134e-02,-9.195450e-03,3.631558e-01
153,3.692656e-01,-1.030341e-02,-9.195609e-03,3.645804e-01
154,3.703130e-01,-1.030672e-02,-9.195778e-03,3.660014e-01
155,3.716483e-01,-1.031090e-02,-9.195951e-03,3.674195e-01
156,3.731233e-01,-1.031548e-02,-9.196108e-03,3.688356e-01
157,3.745871e-01,-1.032004e-02,-9.196281e-03,3.702504e-01
158,3.759036e-01,-1.032416e-02,-9.196450e-03,3.716647e-01
159,3.769640e-01,-1.032751e-02,-9.196620e-03,3.730789e-01
160,3.776938e-01,-1.032987e-02,-9.196787e-03,3.744933e-01
161,3.780548e-01,-1.033112e-02,-9.196959e-03,3.759076e-01
162,3.780434e-01,-1.033123e-02,-9.197104e-03,3.773215e-01
163,3.776851e-01,-1.033030e-02,-9.197245e-03,3.787342e-01
164,3.770249e-01,-1.032847e-02,-9.197393e-03,3.801447e-01
165,3.761161e-01,-1.032589e-02,-9.197545e-03,3.815521e-01
166,3.750102e-01,-1.032273e-02,-9.197702e-03,3.829551e-01
167,3.737511e-01,-1.031912e-02,-9.197866e-03,3.843524e-01
168,3.723750e-01,-1.031517e-02,-9.198048e-03,3.857427e-01
169,3.709135e-01,-1.031100e-02,-9.198255e-03,3.871248e-01
170,3.693987e-01,-1.030667e-02,-9.198469e-03,3.884974e-01
171,3.678652e-01,-1.030229e-02,-9.198698e-03,3.898593e-01
172,3.663507e-01,-1.029798e-02,-9.198931e-03,3.912091e-01
173,3.648959e-01,-1.029386e-02,-9.199174e-03,3.925458e-01
174,3.635443e-01,-1.029005e-02,-9.199418e-03,3.938683e-01
175,3.623423e-01,-1.028671e-02,-9.199684e-03,3.951757e-01
176,3.613381e-01,-1.028399e-02,-9.199971e-03,3.964670e-01
177,3.605784e-01,-1.028200e-02,-9.200261e-03,3.977416e-01
178,3.601044e-01,-1.028088e-02,-9.200567e-03,3.989991e-01
179,3.599469e-01,-1.028074e-02,-9.200895e-03,4.002390e-01
180,3.601223e-01,-1.028160e-02,-9.201231e-03,4.014614e-01
181,3.606321e-01,-1.028348e-02,-9.201584e-03,4.026665e-01
182,3.614627e-01,-1.028633e-02,-9.201943e-03,4.038549e-01
183,3.625889e-01,-1.029006e-02,-9.202291e-03,4.050271e-01
184,3.639770e-01,-1.029458e-02,-9.202654e-03,4.061843e-01
185,3.655869e-01,-1.029977e-02,-9.203014e-03,4.073274e-01
186,3.673744e-01,-1.030551e-02,-9.203383e-03,4.084579e-01
187,3.692922e-01,-1.031162e-02,-9.203739e-03,4.095770e-01
188,3.712903e-01,-1.031795e-02,-9.204084e-03,4.106863e-01
189,3.733162e-01,-1.032437e-02,-9.204417e-03,4.117871e-01
190,3.753122e-01,-1.033068e-02,-9.204746e-03,4.128810e-01
191,3.772103e-01,-1.033671e-02,-9.205078e-03,4.139695e-01
192,3.789266e-01,-1.034218e-02,-9.205403e-03,4.150539e-01
193,3.803606e-01,-1.034680e-02,-9.205715e-03,4.161355e-01
194,3.814051e-01,-1.035024e-02,-9.206024e-03,4.172154e-01
195,3.819661e-01,-1.035221e-02,-9.206309e-03,4.182945e-01
196,3.819901e-01,-1.035255e-02,-9.206579e-03,4.193733e-01
197,3.814874e-01,-1.035129e-02,-9.206824e-03,4.204519e-01
198,3.805438e-01,-1.034869e-02,-9.207057e-03,4.215303e-01
199,3.793129e-01,-1.034520e-02,-9.207263e-03,4.226079e-01
200,3.779935e-01,-1.034145e-02,-9.207469e-03,4.236841e-01
201,3.767985e-01,-1.033806e-02,-9.207668e-03,4.247581e-01
202,3.759279e-01,-1.033565e-02,-9.207864e-03,4.258293e-01
203,3.755492e-01,-1.033471e-02,-9.208066e-03,4.268970e-01
204,3.757837e-01,-1.033562e-02,-9.208271e-03,4.279612e-01
205,3.766941e-01,-1.033857e-02,-9.208486e-03,4.290219e-01
206,3.782737e-01,-1.034353e-02,-9.208712e-03,4.300798e-01
207,3.804435e-01,-1.035029e-02,-9.208957e-03,4.311361e-01
208,3.830640e-01,-1.035843e-02,-9.209243e-03,4.321923e-01
209,3.859598e-01,-1.036744e-02,-9.209560e-03,4.332501e-01
210,3.889491e-01,-1.037674e-02,-9.209891e-03,4.343117e-01
211,3.918653e-01,-1.038582e-02,-9.210228e-03,4.353790e-01
212,3.945678e-01,-1.039426e-02,-9.210554e-03,4.364539e-01
213,3.969425e-01,-1.040172e-02,-9.210892e-03,4.375381e-01
214,3.988976e-01,-1.040792e-02,-9.211232e-03,4.386329e-01
215,4.003598e-01,-1.041265e-02,-9.211569e-03,4.397395e-01
216,4.012726e-01,-1.041572e-02,-9.211904e-03,4.408586e-01
217,4.015963e-01,-1.041702e-02,-9.212235e-03,4.419905e-01
218,4.013088e-01,-1.041649e-02,-9.212567e-03,4.431352e-01
219,4.004068e-01,-1.041412e-02,-9.212900e-03,4.442925e-01
220,3.989069e-01,-1.040994e-02,-9.213224e-03,4.454618e-01
221,3.968503e-01,-1.040410e-02,-9.213552e-03,4.466422e-01
222,3.943074e-01,-1.039680e-02,-9.213880e-03,4.478325e-01
223,3.913835e-01,-1.038835e-02,-9.214195e-03,4.490313e-01
224,3.882195e-01,-1.037916e-02,-9.214500e-03,4.502368e-01
225,3.849852e-01,-1.036974e-02,-9.214789e-03,4.514472e-01
226,3.818644e-01,-1.036067e-02,-9.215075e-03,4.526604e-01
227,3.790328e-01,-1.035249e-02,-9.215391e-03,4.538744e-01
228,3.766352e-01,-1.034562e-02,-9.215717e-03,4.550872e-01
229,3.747652e-01,-1.034036e-02,-9.216061e-03,4.562967e-01
230,3.734555e-01,-1.033679e-02,-9.216422e-03,4.575013e-01
231,3.726789e-01,-1.033482e-02,-9.216779e-03,4.586994e-01
232,3.723604e-01,-1.033420e-02,-9.217122e-03,4.598898e-01
233,3.723973e-01,-1.033464e-02,-9.217453e-03,4.610714e-01
234,3.726808e-01,-1.033581e-02,-9.217765e-03,4.622433e-01
235,3.731155e-01,-1.033742e-02,-9.218077e-03,4.634046e-01
236,3.736328e-01,-1.033928e-02,-9.218378e-03,4.645546e-01
237,3.741971e-01,-1.034124e-02,-9.218654e-03,4.656929e-01
238,3.748043e-01,-1.034332e-02,-9.218909e-03,4.668187e-01
239,3.754749e-01,-1.034558e-02,-9.219156e-03,4.679317e-01
240,3.762423e-01,-1.034814e-02,-9.219410e-03,4.690316e-01
241,3.771411e-01,-1.035110e-02,-9.219672e-03,4.701180e-01
242,3.781972e-01,-1.035453e-02,-9.219935e-03,4.711911e-01
243,3.794206e-01,-1.035845e-02,-9.220185e-03,4.722509e-01
244,3.808033e-01,-1.036284e-02,-9.220430e-03,4.732976e-01
245,3.823199e-01,-1.036763e-02,-9.220673e-03,4.743319e-01
246,3.839306e-01,-1.037269e-02,-9.220894e-03,4.753542e-01
247,3.855859e-01,-1.037785e-02,-9.221092e-03,4.763654e-01
248,3.872307e-01,-1.038300e-02,-9.221303e-03,4.773661e-01
249,3.888087e-01,-1.038793e-02,-9.221507e-03,4.783571e-01
250,3.902665e-01,-1.039251e-02,-9.221708e-03,4.793394e-01
251,3.915581e-01,-1.039657e-02,-9.221900e-03,4.803135e-01
252,3.926502e-01,-1.040004e-02,-9.222085e-03,4.812802e-01
253,3.935267e-01,-1.040285e-02,-9.222268e-03,4.822401e-01
254,3.941918e-01,-1.040504e-02,-9.222461e-03,4.831937e-01
255,3.946701e-01,-1.040666e-02,-9.222645e-03,4.841413e-01
256,3.950041e-01,-1.040783e-02,-9.222818e-03,4.850833e-01
257,3.952474e-01,-1.040872e-02,-9.222976e-03,4.860200e-01
258,3.954591e-01,-1.040950e-02,-9.223123e-03,4.869517e-01
259,3.956952e-01,-1.041035e-02,-9.223262e-03,4.878787e-01
260,3.960025e-01,-1.041141e-02,-9.223401e-03,4.888011e-01
261,3.964121e-01,-1.041277e-02,-9.223535e-03,4.897196e-01
262,3.969355e-01,-1.041447e-02,-9.223663e-03,4.906343e-01
263,3.975646e-01,-1.041650e-02,-9.223805e-03,4.915458e-01
264,3.982753e-01,-1.041879e-02,-9.223961e-03,4.924545e-01
265,3.990342e-01,-1.042121e-02,-9.224105e-03,4.933610e-01
266,3.998044e-01,-1.042367e-02,-9.224258e-03,4.942656e-01
267,4.005507e-01,-1.042606e-02,-9.224403e-03,4.951688e-01
268,4.012418e-01,-1.042827e-02,-9.224545e-03,4.960709e-01
269,4.018512e-01,-1.043024e-02,-9.224683e-03,4.969721e-01
270,4.023578e-01,-1.043189e-02,-9.224821e-03,4.978727e-01
271,4.027464e-01,-1.043321e-02,-9.224973e-03,4.987727e-01
272,4.030095e-01,-1.043416e-02,-9.225133e-03,4.996720e-01
273,4.031494e-01,-1.043473e-02,-9.225280e-03,5.005704e-01
274,4.031785e-01,-1.043495e-02,-9.225418e-03,5.014678e-01
275,4.031175e-01,-1.043490e-02,-9.225552e-03,5.023639e-01
276,4.029905e-01,-1.043466e-02,-9.225686e-03,5.032582e-01
277,4.028176e-01,-1.043428e-02,-9.225824e-03,5.041504e-01
278,4.026095e-01,-1.043379e-02,-9.225964e-03,5.050401e-01
279,4.023653e-01,-1.043320e-02,-9.226100e-03,5.059268e-01
280,4.020757e-01,-1.043247e-02,-9.226245e-03,5.068101e-01
281,4.017292e-01,-1.043159e-02,-9.226398e-03,5.076896e-01
282,4.013188e-01,-1.043053e-02,-9.226569e-03,5.085648e-01
283,4.008477e-01,-1.042930e-02,-9.226755e-03,5.094351e-01
284,4.003299e-01,-1.042794e-02,-9.226948e-03,5.103000e-01
285,3.997882e-01,-1.042651e-02,-9.227148e-03,5.111589e-01
286,3.992468e-01,-1.042510e-02,-9.227362e-03,5.120110e-01
287,3.987247e-01,-1.042377e-02,-9.227598e-03,5.128558e-01
288,3.982315e-01,-1.042254e-02,-9.227848e-03,5.136924e-01
289,3.977702e-01,-1.042143e-02,-9.228124e-03,5.145202e-01
290,3.973459e-01,-1.042043e-02,-9.228394e-03,5.153384e-01
291,3.969773e-01,-1.041959e-02,-9.228661e-03,5.161461e-01
292,3.967036e-01,-1.041903e-02,-9.228924e-03,5.169423e-01
293,3.965864e-01,-1.041893e-02,-9.229173e-03,5.177264e-01
294,3.967023e-01,-1.041951e-02,-9.229399e-03,5.184975e-01
295,3.971309e-01,-1.042102e-02,-9.229632e-03,5.192551e-01
296,3.979379e-01,-1.042370e-02,-9.229883e-03,5.199992e-01
297,3.991606e-01,-1.042764e-02,-9.230155e-03,5.207300e-01
298,4.007976e-01,-1.043283e-02,-9.230438e-03,5.214484e-01
299,4.028087e-01,-1.043915e-02,-9.230724e-03,5.221558e-01
300,4.051220e-01,-1.044637e-02,-9.231006e-03,5.228538e-01
301,4.076455e-01,-1.045422e-02,-9.231285e-03,5.235447e-01
302,4.102791e-01,-1.046241e-02,-9.231573e-03,5.242307e-01
303,4.129227e-01,-1.047063e-02,-9.231862e-03,5.249142e-01
304,4.154811e-01,-1.047858e-02,-9.232134e-03,5.255976e-01
305,4.178659e-01,-1.048601e-02,-9.232409e-03,5.262832e-01
306,4.199949e-01,-1.049267e-02,-9.232684e-03,5.269730e-01
307,4.217914e-01,-1.049832e-02,-9.232941e-03,5.276689e-01
308,4.231849e-01,-1.050275e-02,-9.233199e-03,5.283725e-01
309,4.241129e-01,-1.050581e-02,-9.233476e-03,5.290850e-01
310,4.245274e-01,-1.050735e-02,-9.233772e-03,5.298075e-01
311,4.244041e-01,-1.050730e-02,-9.234089e-03,5.305405e-01
312,4.237527e-01,-1.050565e-02,-9.234394e-03,5.312843e-01
313,4.226250e-01,-1.050256e-02,-9.234681e-03,5.320390e-01
314,4.211171e-01,-1.049829e-02,-9.234937e-03,5.328041e-01
315,4.193631e-01,-1.049328e-02,-9.235193e-03,5.335793e-01
316,4.175213e-01,-1.048803e-02,-9.235469e-03,5.343639e-01
317,4.157538e-01,-1.048301e-02,-9.235747e-03,5.351570e-01
318,4.142039e-01,-1.047863e-02,-9.236022e-03,5.359580e-01
319,4.129766e-01,-1.047524e-02,-9.236307e-03,5.367660e-01
320,4.121269e-01,-1.047297e-02,-9.236592e-03,5.375805e-01
321,4.116552e-01,-1.047185e-02,-9.236888e-03,5.384011e-01
322,4.115119e-01,-1.047171e-02,-9.237178e-03,5.392272e-01
323,4.116082e-01,-1.047228e-02,-9.237460e-03,5.400585e-01
324,4.118318e-01,-1.047323e-02,-9.237737e-03,5.408947e-01
325,4.120659e-01,-1.047420e-02,-9.237998e-03,5.417354e-01
326,4.122097e-01,-1.047486e-02,-9.238235e-03,5.425802e-01
327,4.121967e-01,-1.047504e-02,-9.238451e-03,5.434285e-01
328,4.120077e-01,-1.047468e-02,-9.238653e-03,5.442794e-01
329,4.116752e-01,-1.047386e-02,-9.238837e-03,5.451322e-01
330,4.112780e-01,-1.047284e-02,-9.239006e-03,5.459859e-01
331,4.109259e-01,-1.047196e-02,-9.239180e-03,5.468396e-01
332,4.107373e-01,-1.047157e-02,-9.239360e-03,5.476922e-01
333,4.108157e-01,-1.047199e-02,-9.239543e-03,5.485430e-01
334,4.112308e-01,-1.047343e-02,-9.239734e-03,5.493915e-01
335,4.120104e-01,-1.047599e-02,-9.239956e-03,5.502372e-01
336,4.131436e-01,-1.047960e-02,-9.240170e-03,5.510801e-01
337,4.145911e-01,-1.048414e-02,-9.240367e-03,5.519202e-01
338,4.162943e-01,-1.048944e-02,-9.240557e-03,5.527579e-01
339,4.181789e-01,-1.049530e-02,-9.240760e-03,5.535935e-01
340,4.201512e-01,-1.050141e-02,-9.240956e-03,5.544277e-01
341,4.220915e-01,-1.050741e-02,-9.241132e-03,5.552613e-01
342,4.238540e-01,-1.051285e-02,-9.241289e-03,5.560948e-01
343,4.252749e-01,-1.051726e-02,-9.241438e-03,5.569291e-01
344,4.261918e-01,-1.052016e-02,-9.241580e-03,5.577649e-01
