TimeStep,Temp,PotEnergy,TotEnergy,MeanSqDisp
0,9.003541e-01,-6.017947e-03,-3.316885e-03,8.215838e-03
1,9.014151e-01,-6.020902e-03,-3.316657e-03,1.643491e-02
2,9.031785e-01,-6.025886e-03,-3.316350e-03,2.466043e-02
3,9.056356e-01,-6.033241e-03,-3.316335e-03,3.289557e-02
4,9.087718e-01,-6.043201e-03,-3.316886e-03,4.114345e-02
5,9.125682e-01,-6.055715e-03,-3.318010e-03,4.940708e-02
6,9.170004e-01,-6.070643e-03,-3.319642e-03,5.768936e-02
7,9.220361e-01,-6.087761e-03,-3.321652e-03,6.599305e-02
8,9.276325e-01,-6.106814e-03,-3.323917e-03,7.432068e-02
9,9.337320e-01,-6.127537e-03,-3.326341e-03,8.267459e-02
10,9.402572e-01,-6.149648e-03,-3.328876e-03,9.105675e-02
11,9.471044e-01,-6.172794e-03,-3.331481e-03,9.946872e-02
12,9.541356e-01,-6.196539e-03,-3.334132e-03,1.079115e-01
13,9.611694e-01,-6.220294e-03,-3.336786e-03,1.163855e-01
14,9.679702e-01,-6.243346e-03,-3.339435e-03,1.248899e-01
15,9.742398e-01,-6.264798e-03,-3.342078e-03,1.334230e-01
16,9.796124e-01,-6.283537e-03,-3.344700e-03,1.419815e-01
17,9.836624e-01,-6.298274e-03,-3.347287e-03,1.505601e-01
18,9.859353e-01,-6.307635e-03,-3.349829e-03,1.591512e-01
19,9.860110e-01,-6.310326e-03,-3.352293e-03,1.677447e-01
20,9.836020e-01,-6.305437e-03,-3.354631e-03,1.763276e-01
21,9.786572e-01,-6.292815e-03,-3.356843e-03,1.848842e-01
22,9.714146e-01,-6.273199e-03,-3.358955e-03,1.933968e-01
23,9.623479e-01,-6.248019e-03,-3.360976e-03,2.018465e-01
24,9.520300e-01,-6.219006e-03,-3.362916e-03,2.102146e-01
25,9.410182e-01,-6.187867e-03,-3.364813e-03,2.184834e-01
26,9.298387e-01,-6.156172e-03,-3.366656e-03,2.266370e-01
27,9.190298e-01,-6.125538e-03,-3.368449e-03,2.346618e-01
28,9.091487e-01,-6.097619e-03,-3.370173e-03,2.425465e-01
29,9.007172e-01,-6.073978e-03,-3.371826e-03,2.502829e-01
30,8.941513e-01,-6.055864e-03,-3.373410e-03,2.578656e-01
31,8.897175e-01,-6.044093e-03,-3.374940e-03,2.652925e-01
32,8.875147e-01,-6.038961e-03,-3.376417e-03,2.725644e-01
33,8.874660e-01,-6.040255e-03,-3.377857e-03,2.796850e-01
34,8.893197e-01,-6.047227e-03,-3.379268e-03,2.866602e-01
35,8.926707e-01,-6.058672e-03,-3.380660e-03,2.934977e-01
36,8.970131e-01,-6.073077e-03,-3.382037e-03,3.002062e-01
37,9.018143e-01,-6.088836e-03,-3.383394e-03,3.067950e-01
38,9.065961e-01,-6.104520e-03,-3.384732e-03,3.132730e-01
39,9.110031e-01,-6.119010e-03,-3.386001e-03,3.196484e-01
40,9.148392e-01,-6.131747e-03,-3.387229e-03,3.259285e-01
41,9.180660e-01,-6.142616e-03,-3.388418e-03,3.321195e-01
42,9.207612e-01,-6.151864e-03,-3.389580e-03,3.382267e-01
43,9.230586e-01,-6.159915e-03,-3.390739e-03,3.442545e-01
44,9.250959e-01,-6.167166e-03,-3.391879e-03,3.502071e-01
45,9.269959e-01,-6.173995e-03,-3.393007e-03,3.560882e-01
46,9.288772e-01,-6.180745e-03,-3.394114e-03,3.619015e-01
47,9.308749e-01,-6.187825e-03,-3.395200e-03,3.676503e-01
48,9.331419e-01,-6.195715e-03,-3.396289e-03,3.733381e-01
49,9.358186e-01,-6.204814e-03,-3.397359e-03,3.789684e-01
50,9.389829e-01,-6.215395e-03,-3.398446e-03,3.845444e-01
51,9.426147e-01,-6.227348e-03,-3.399504e-03,3.900695e-01
52,9.466048e-01,-6.240345e-03,-3.400530e-03,3.955468e-01
53,9.508037e-01,-6.253965e-03,-3.401554e-03,4.009794e-01
54,9.550684e-01,-6.267764e-03,-3.402559e-03,4.063701e-01
55,9.592773e-01,-6.281400e-03,-3.403568e-03,4.117213e-01
56,9.633201e-01,-6.294515e-03,-3.404555e-03,4.170352e-01
57,9.671018e-01,-6.306805e-03,-3.405499e-03,4.223138e-01
58,9.705732e-01,-6.318126e-03,-3.406407e-03,4.275586e-01
59,9.737598e-01,-6.328544e-03,-3.407264e-03,4.327712e-01
60,9.767522e-01,-6.338366e-03,-3.408110e-03,4.379528e-01
61,9.796456e-01,-6.347878e-03,-3.408941e-03,4.431049e-01
62,9.824596e-01,-6.357131e-03,-3.409752e-03,4.482294e-01
63,9.850884e-01,-6.365854e-03,-3.410589e-03,4.533282e-01
64,9.873203e-01,-6.373378e-03,-3.411417e-03,4.584037e-01
65,9.889343e-01,-6.378989e-03,-3.412186e-03,4.634577e-01
66,9.898378e-01,-6.382421e-03,-3.412908e-03,4.684917e-01
67,9.901751e-01,-6.384114e-03,-3.413588e-03,4.735062e-01
68,9.903046e-01,-6.385195e-03,-3.414281e-03,4.785015e-01
69,9.906059e-01,-6.386798e-03,-3.414980e-03,4.834780e-01
70,9.912457e-01,-6.389430e-03,-3.415693e-03,4.884368e-01
71,9.921141e-01,-6.392747e-03,-3.416404e-03,4.933799e-01
72,9.929617e-01,-6.396007e-03,-3.417122e-03,4.983094e-01
73,9.935774e-01,-6.398525e-03,-3.417793e-03,5.032274e-01
74,9.938930e-01,-6.400096e-03,-3.418417e-03,5.081348e-01
75,9.940256e-01,-6.401061e-03,-3.418984e-03,5.130321e-01
76,9.942659e-01,-6.402287e-03,-3.419489e-03,5.179189e-01
77,9.949891e-01,-6.404942e-03,-3.419975e-03,5.227946e-01
78,9.965039e-01,-6.410040e-03,-3.420529e-03,5.276591e-01
79,9.989226e-01,-6.417903e-03,-3.421135e-03,5.325127e-01
80,1.002137e+00,-6.428156e-03,-3.421745e-03,5.373566e-01
81,1.005901e+00,-6.440037e-03,-3.422335e-03,5.421923e-01
82,1.009936e+00,-6.452714e-03,-3.422905e-03,5.470219e-01
83,1.013987e+00,-6.465423e-03,-3.423461e-03,5.518471e-01
84,1.017806e+00,-6.477414e-03,-3.423995e-03,5.566698e-01
85,1.021138e+00,-6.487930e-03,-3.424517e-03,5.614914e-01
86,1.023747e+00,-6.496260e-03,-3.425020e-03,5.663130e-01
87,1.025497e+00,-6.501943e-03,-3.425453e-03,5.711348e-01
88,1.026422e+00,-6.505066e-03,-3.425799e-03,5.759566e-01
89,1.026737e+00,-6.506309e-03,-3.426099e-03,5.807774e-01
90,1.026741e+00,-6.506653e-03,-3.426431e-03,5.855957e-01
91,1.026688e+00,-6.506829e-03,-3.426765e-03,5.904097e-01
92,1.026694e+00,-6.507206e-03,-3.427124e-03,5.952175e-01
93,1.026750e+00,-6.507741e-03,-3.427491e-03,6.000172e-01
94,1.026814e+00,-6.508262e-03,-3.427819e-03,6.048074e-01
95,1.026895e+00,-6.508808e-03,-3.428121e-03,6.095872e-01
96,1.027060e+00,-6.509580e-03,-3.428400e-03,6.143560e-01
97,1.027387e+00,-6.510833e-03,-3.428671e-03,6.191137e-01
98,1.027924e+00,-6.512713e-03,-3.428942e-03,6.238604e-01
99,1.028659e+00,-6.515213e-03,-3.429236e-03,6.285963e-01
100,9.011608e-01,-6.518963e-03,-3.815481e-03,6.330103e-01
101,9.029708e-01,-6.524692e-03,-3.815780e-03,6.374028e-01
102,9.051258e-01,-6.531455e-03,-3.816078e-03,6.417741e-01
103,9.072914e-01,-6.538220e-03,-3.816345e-03,6.461241e-01
104,9.092065e-01,-6.544190e-03,-3.816571e-03,6.504526e-01
105,9.107495e-01,-6.549004e-03,-3.816756e-03,6.547588e-01
106,9.119367e-01,-6.552762e-03,-3.816952e-03,6.590416e-01
107,9.128639e-01,-6.555727e-03,-3.817135e-03,6.632998e-01
108,9.136354e-01,-6.558224e-03,-3.817317e-03,6.675326e-01
109,9.143148e-01,-6.560451e-03,-3.817506e-03,6.717397e-01
110,9.149159e-01,-6.562481e-03,-3.817733e-03,6.759215e-01
111,9.154348e-01,-6.564285e-03,-3.817981e-03,6.800793e-01
112,9.159127e-01,-6.565947e-03,-3.818209e-03,6.842152e-01
113,9.164890e-01,-6.567863e-03,-3.818396e-03,6.883318e-01
114,9.173978e-01,-6.570777e-03,-3.818584e-03,6.924316e-01
115,9.188781e-01,-6.575429e-03,-3.818795e-03,6.965174e-01
116,9.210345e-01,-6.582169e-03,-3.819065e-03,7.005918e-01
117,9.237356e-01,-6.590572e-03,-3.819365e-03,7.046574e-01
118,9.266310e-01,-6.599548e-03,-3.819655e-03,7.087164e-01
119,9.292857e-01,-6.607786e-03,-3.819929e-03,7.127704e-01
120,9.313457e-01,-6.614241e-03,-3.820204e-03,7.168205e-01
121,9.326326e-01,-6.618376e-03,-3.820478e-03,7.208668e-01
122,9.331194e-01,-6.620104e-03,-3.820746e-03,7.249083e-01
123,9.328347e-01,-6.619514e-03,-3.821010e-03,7.289433e-01
124,9.317827e-01,-6.616634e-03,-3.821286e-03,7.329688e-01
125,9.299202e-01,-6.611311e-03,-3.821551e-03,7.369814e-01
126,9.271693e-01,-6.603325e-03,-3.821817e-03,7.409774e-01
127,9.234849e-01,-6.592506e-03,-3.822051e-03,7.449533e-01
128,9.190030e-01,-6.579254e-03,-3.822245e-03,7.489056e-01
129,9.141665e-01,-6.564878e-03,-3.822378e-03,7.528311e-01
130,9.096697e-01,-6.551490e-03,-3.822481e-03,7.567267e-01
131,9.062213e-01,-6.541302e-03,-3.822638e-03,7.605900e-01
132,9.042805e-01,-6.535711e-03,-3.822870e-03,7.644194e-01
133,9.039140e-01,-6.534890e-03,-3.823148e-03,7.682143e-01
134,9.048347e-01,-6.537920e-03,-3.823416e-03,7.719746e-01
135,9.065924e-01,-6.543410e-03,-3.823632e-03,7.757009e-01
136,9.088088e-01,-6.550201e-03,-3.823775e-03,7.793932e-01
137,9.113341e-01,-6.557861e-03,-3.823859e-03,7.830514e-01
138,9.142634e-01,-6.566694e-03,-3.823904e-03,7.866749e-01
139,9.178216e-01,-6.577424e-03,-3.823960e-03,7.902630e-01
140,9.221768e-01,-6.590574e-03,-3.824044e-03,7.938155e-01
141,9.272888e-01,-6.606034e-03,-3.824168e-03,7.973327e-01
142,9.328866e-01,-6.622952e-03,-3.824292e-03,8.008166e-01
143,9.385586e-01,-6.640071e-03,-3.824395e-03,8.042701e-01
144,9.438531e-01,-6.656067e-03,-3.824508e-03,8.076972e-01
145,9.483325e-01,-6.669628e-03,-3.824630e-03,8.111029e-01
146,9.516060e-01,-6.679556e-03,-3.824738e-03,8.144930e-01
147,9.533801e-01,-6.684962e-03,-3.824822e-03,8.178731e-01
148,9.535079e-01,-6.685414e-03,-3.824890e-03,8.212488e-01
149,9.520009e-01,-6.680944e-03,-3.824941e-03,8.246244e-01
150,9.490106e-01,-6.672001e-03,-3.824969e-03,8.280034e-01
151,9.448144e-01,-6.659409e-03,-3.824966e-03,8.313874e-01
152,9.398191e-01,-6.644397e-03,-3.824939e-03,8.347772e-01
153,9.345456e-01,-6.628537e-03,-3.824900e-03,8.381723e-01
154,9.295532e-01,-6.613541e-03,-3.824881e-03,8.415714e-01
155,9.253087e-01,-6.600843e-03,-3.824917e-03,8.449727e-01
156,9.220765e-01,-6.591248e-03,-3.825018e-03,8.483743e-01
157,9.199087e-01,-6.584903e-03,-3.825177e-03,8.517743e-01
158,9.187368e-01,-6.581551e-03,-3.825340e-03,8.551706e-01
159,9.184851e-01,-6.580969e-03,-3.825514e-03,8.585612e-01
160,9.191237e-01,-6.583054e-03,-3.825682e-03,8.619445e-01
161,9.206506e-01,-6.587823e-03,-3.825871e-03,8.653187e-01
162,9.230462e-01,-6.595240e-03,-3.826101e-03,8.686828e-01
163,9.262362e-01,-6.605090e-03,-3.826381e-03,8.720361e-01
164,9.300529e-01,-6.616857e-03,-3.826698e-03,8.753790e-01
165,9.341880e-01,-6.629616e-03,-3.827052e-03,8.787123e-01
166,9.381788e-01,-6.641990e-03,-3.827454e-03,8.820377e-01
167,9.414753e-01,-6.652265e-03,-3.827839e-03,8.853570e-01
168,9.435829e-01,-6.658907e-03,-3.828158e-03,8.886720e-01
169,9.442112e-01,-6.661071e-03,-3.828437e-03,8.919839e-01
170,9.433496e-01,-6.658711e-03,-3.828663e-03,8.952932e-01
171,9.412318e-01,-6.652555e-03,-3.828859e-03,8.985998e-01
172,9.382231e-01,-6.643701e-03,-3.829032e-03,9.019030e-01
173,9.347188e-01,-6.633356e-03,-3.829200e-03,9.052017e-01
174,9.311178e-01,-6.622701e-03,-3.829347e-03,9.084949e-01
175,9.278343e-01,-6.612973e-03,-3.829470e-03,9.117819e-01
176,9.252596e-01,-6.605355e-03,-3.829576e-03,9.150621e-01
177,9.236337e-01,-6.600609e-03,-3.829707e-03,9.183354e-01
178,9.229173e-01,-6.598621e-03,-3.829869e-03,9.216024e-01
179,9.228148e-01,-6.598475e-03,-3.830031e-03,9.248640e-01
180,9.229740e-01,-6.599085e-03,-3.830163e-03,9.281219e-01
181,9.232025e-01,-6.599866e-03,-3.830258e-03,9.313779e-01
182,9.235302e-01,-6.600903e-03,-3.830312e-03,9.346338e-01
183,9.240975e-01,-6.602654e-03,-3.830362e-03,9.378916e-01
184,9.249816e-01,-6.605377e-03,-3.830432e-03,9.411530e-01
185,9.260935e-01,-6.608800e-03,-3.830519e-03,9.444192e-01
186,9.272048e-01,-6.612231e-03,-3.830617e-03,9.476912e-01
187,9.280677e-01,-6.614925e-03,-3.830722e-03,9.509689e-01
188,9.285427e-01,-6.616423e-03,-3.830794e-03,9.542517e-01
189,9.286738e-01,-6.616836e-03,-3.830815e-03,9.575378e-01
190,9.286975e-01,-6.616868e-03,-3.830776e-03,9.608247e-01
191,9.289902e-01,-6.617699e-03,-3.830729e-03,9.641092e-01
192,9.299618e-01,-6.620591e-03,-3.830706e-03,9.673875e-01
193,9.319131e-01,-6.626479e-03,-3.830740e-03,9.706565e-01
194,9.349164e-01,-6.635593e-03,-3.830844e-03,9.739131e-01
195,9.387822e-01,-6.647331e-03,-3.830985e-03,9.771554e-01
196,9.431108e-01,-6.660467e-03,-3.831135e-03,9.803825e-01
197,9.473694e-01,-6.673396e-03,-3.831288e-03,9.835943e-01
198,9.509720e-01,-6.684361e-03,-3.831445e-03,9.867914e-01
199,9.533842e-01,-6.691701e-03,-3.831548e-03,9.899752e-01
200,9.542383e-01,-6.694292e-03,-3.831577e-03,9.931469e-01
201,9.534173e-01,-6.691793e-03,-3.831541e-03,9.963079e-01
202,9.510776e-01,-6.684682e-03,-3.831450e-03,9.994593e-01
203,9.476109e-01,-6.674165e-03,-3.831332e-03,1.002602e+00
204,9.435637e-01,-6.661868e-03,-3.831177e-03,1.005735e+00
205,9.395529e-01,-6.649679e-03,-3.831020e-03,1.008861e+00
206,9.362077e-01,-6.639495e-03,-3.830872e-03,1.011977e+00
207,9.341158e-01,-6.633090e-03,-3.830742e-03,1.015085e+00
208,9.337081e-01,-6.631811e-03,-3.830686e-03,1.018183e+00
209,9.350849e-01,-6.635979e-03,-3.830724e-03,1.021272e+00
210,9.379173e-01,-6.644587e-03,-3.830836e-03,1.024352e+00
211,9.415452e-01,-6.655594e-03,-3.830959e-03,1.027424e+00
212,9.452126e-01,-6.666692e-03,-3.831054e-03,1.030488e+00
213,9.482639e-01,-6.675907e-03,-3.831115e-03,1.033545e+00
214,9.502130e-01,-6.681830e-03,-3.831192e-03,1.036595e+00
215,9.507296e-01,-6.683450e-03,-3.831261e-03,1.039635e+00
216,9.496248e-01,-6.680195e-03,-3.831321e-03,1.042664e+00
217,9.468703e-01,-6.671945e-03,-3.831334e-03,1.045677e+00
218,9.426443e-01,-6.659221e-03,-3.831288e-03,1.048669e+00
219,9.373673e-01,-6.643296e-03,-3.831194e-03,1.051635e+00
220,9.316853e-01,-6.626140e-03,-3.831084e-03,1.054567e+00
221,9.263536e-01,-6.610060e-03,-3.830999e-03,1.057459e+00
222,9.220324e-01,-6.597067e-03,-3.830969e-03,1.060304e+00
223,9.191005e-01,-6.588313e-03,-3.831011e-03,1.063097e+00
224,9.175900e-01,-6.583888e-03,-3.831118e-03,1.065835e+00
225,9.172324e-01,-6.582994e-03,-3.831297e-03,1.068514e+00
226,9.175625e-01,-6.584176e-03,-3.831488e-03,1.071135e+00
227,9.180658e-01,-6.585853e-03,-3.831656e-03,1.073699e+00
228,9.183375e-01,-6.586830e-03,-3.831818e-03,1.076207e+00
229,9.181850e-01,-6.586523e-03,-3.831968e-03,1.078662e+00
230,9.176479e-01,-6.585024e-03,-3.832081e-03,1.081067e+00
231,9.169804e-01,-6.583062e-03,-3.832121e-03,1.083423e+00
232,9.166154e-01,-6.581958e-03,-3.832112e-03,1.085736e+00
233,9.170461e-01,-6.583270e-03,-3.832132e-03,1.088008e+00
234,9.185936e-01,-6.587989e-03,-3.832208e-03,1.090245e+00
235,9.212086e-01,-6.595942e-03,-3.832316e-03,1.092451e+00
236,9.245187e-01,-6.605970e-03,-3.832414e-03,1.094631e+00
237,9.281096e-01,-6.616788e-03,-3.832459e-03,1.096792e+00
238,9.318008e-01,-6.627820e-03,-3.832418e-03,1.098937e+00
239,9.356914e-01,-6.639439e-03,-3.832365e-03,1.101071e+00
240,9.399600e-01,-6.652279e-03,-3.832399e-03,1.103196e+00
241,9.446040e-01,-6.666308e-03,-3.832496e-03,1.105318e+00
242,9.493423e-01,-6.680659e-03,-3.832632e-03,1.107440e+00
243,9.537456e-01,-6.694010e-03,-3.832774e-03,1.109567e+00
244,9.574656e-01,-6.705248e-03,-3.832851e-03,1.111701e+00
245,9.603979e-01,-6.714066e-03,-3.832873e-03,1.113846e+00
246,9.626887e-01,-6.720913e-03,-3.832847e-03,1.116004e+00
247,9.645923e-01,-6.726584e-03,-3.832807e-03,1.118178e+00
248,9.662789e-01,-6.731661e-03,-3.832824e-03,1.120367e+00
249,9.677335e-01,-6.736069e-03,-3.832869e-03,1.122574e+00
250,9.688104e-01,-6.739366e-03,-3.832934e-03,1.124799e+00
251,9.693703e-01,-6.741102e-03,-3.832991e-03,1.127042e+00
252,9.693842e-01,-6.741196e-03,-3.833043e-03,1.129303e+00
253,9.689566e-01,-6.739943e-03,-3.833073e-03,1.131582e+00
254,9.682900e-01,-6.738002e-03,-3.833132e-03,1.133877e+00
255,9.676232e-01,-6.736060e-03,-3.833190e-03,1.136186e+00
256,9.671689e-01,-6.734765e-03,-3.833258e-03,1.138509e+00
257,9.670662e-01,-6.734547e-03,-3.833349e-03,1.140843e+00
258,9.673600e-01,-6.735579e-03,-3.833498e-03,1.143188e+00
259,9.679978e-01,-6.737658e-03,-3.833665e-03,1.145541e+00
260,9.688245e-01,-6.740334e-03,-3.833860e-03,1.147903e+00
261,9.695737e-01,-6.742787e-03,-3.834066e-03,1.150272e+00
262,9.698747e-01,-6.743887e-03,-3.834263e-03,1.152649e+00
263,9.693028e-01,-6.742364e-03,-3.834455e-03,1.155032e+00
264,9.674860e-01,-6.737085e-03,-3.834627e-03,1.157421e+00
265,9.642628e-01,-6.727539e-03,-3.834751e-03,1.159815e+00
266,9.598484e-01,-6.714338e-03,-3.834793e-03,1.162211e+00
267,9.548873e-01,-6.699446e-03,-3.834784e-03,1.164609e+00
268,9.502304e-01,-6.685524e-03,-3.834833e-03,1.167007e+00
269,9.464770e-01,-6.674406e-03,-3.834975e-03,1.169404e+00
270,9.436944e-01,-6.666249e-03,-3.835166e-03,1.171798e+00
271,9.416271e-01,-6.660217e-03,-3.835336e-03,1.174190e+00
272,9.401137e-01,-6.655787e-03,-3.835446e-03,1.176580e+00
273,9.392571e-01,-6.653313e-03,-3.835541e-03,1.178968e+00
274,9.392852e-01,-6.653507e-03,-3.835651e-03,1.181354e+00
275,9.403209e-01,-6.656767e-03,-3.835805e-03,1.183739e+00
276,9.422415e-01,-6.662723e-03,-3.835999e-03,1.186124e+00
277,9.446794e-01,-6.670237e-03,-3.836199e-03,1.188508e+00
278,9.471381e-01,-6.677821e-03,-3.836407e-03,1.190893e+00
279,9.491635e-01,-6.684067e-03,-3.836577e-03,1.193277e+00
280,9.504911e-01,-6.688161e-03,-3.836688e-03,1.195660e+00
281,9.510980e-01,-6.690064e-03,-3.836770e-03,1.198041e+00
282,9.511406e-01,-6.690265e-03,-3.836843e-03,1.200420e+00
283,9.508219e-01,-6.689418e-03,-3.836953e-03,1.202796e+00
284,9.502768e-01,-6.687928e-03,-3.837098e-03,1.205168e+00
285,9.495376e-01,-6.685842e-03,-3.837229e-03,1.207538e+00
286,9.485757e-01,-6.683096e-03,-3.837369e-03,1.209906e+00
287,9.473608e-01,-6.679577e-03,-3.837494e-03,1.212272e+00
288,9.458842e-01,-6.675239e-03,-3.837586e-03,1.214638e+00
289,9.441453e-01,-6.670075e-03,-3.837639e-03,1.217002e+00
290,9.421342e-01,-6.664103e-03,-3.837700e-03,1.219365e+00
291,9.398510e-01,-6.657300e-03,-3.837747e-03,1.221723e+00
292,9.373620e-01,-6.649850e-03,-3.837765e-03,1.224077e+00
293,9.348594e-01,-6.642329e-03,-3.837751e-03,1.226422e+00
294,9.326706e-01,-6.635749e-03,-3.837737e-03,1.228758e+00
295,9.311867e-01,-6.631322e-03,-3.837762e-03,1.231081e+00
296,9.307362e-01,-6.630032e-03,-3.837823e-03,1.233390e+00
297,9.314792e-01,-6.632335e-03,-3.837897e-03,1.235685e+00
298,9.333654e-01,-6.638112e-03,-3.838015e-03,1.237965e+00
299,9.361430e-01,-6.646587e-03,-3.838158e-03,1.240233e+00
300,9.393937e-01,-6.656509e-03,-3.838328e-03,1.242490e+00
301,9.426149e-01,-6.666319e-03,-3.838474e-03,1.244739e+00
302,9.453716e-01,-6.674706e-03,-3.838591e-03,1.246981e+00
303,9.474633e-01,-6.681053e-03,-3.838663e-03,1.249219e+00
304,9.490021e-01,-6.685726e-03,-3.838720e-03,1.251455e+00
305,9.503359e-01,-6.689776e-03,-3.838768e-03,1.253689e+00
306,9.518542e-01,-6.694386e-03,-3.838823e-03,1.255923e+00
307,9.537949e-01,-6.700311e-03,-3.838926e-03,1.258162e+00
308,9.561735e-01,-6.707599e-03,-3.839078e-03,1.260407e+00
309,9.588406e-01,-6.715775e-03,-3.839253e-03,1.262664e+00
310,9.615607e-01,-6.724114e-03,-3.839432e-03,1.264936e+00
311,9.640286e-01,-6.731744e-03,-3.839658e-03,1.267226e+00
312,9.658494e-01,-6.737449e-03,-3.839901e-03,1.269536e+00
313,9.665611e-01,-6.739822e-03,-3.840139e-03,1.271870e+00
314,9.657358e-01,-6.737555e-03,-3.840347e-03,1.274229e+00
315,9.631226e-01,-6.729820e-03,-3.840453e-03,1.276611e+00
316,9.587727e-01,-6.716768e-03,-3.840450e-03,1.279016e+00
317,9.531120e-01,-6.699717e-03,-3.840381e-03,1.281440e+00
318,9.469414e-01,-6.681080e-03,-3.840256e-03,1.283880e+00
319,9.413445e-01,-6.664114e-03,-3.840080e-03,1.286331e+00
320,9.374770e-01,-6.652380e-03,-3.839949e-03,1.288788e+00
321,9.362698e-01,-6.648718e-03,-3.839908e-03,1.291247e+00
322,9.381510e-01,-6.654444e-03,-3.839990e-03,1.293707e+00
323,9.429387e-01,-6.668987e-03,-3.840171e-03,1.296167e+00
324,9.499807e-01,-6.690294e-03,-3.840351e-03,1.298628e+00
325,9.584331e-01,-6.715813e-03,-3.840514e-03,1.301091e+00
326,9.674606e-01,-6.743033e-03,-3.840651e-03,1.303558e+00
327,9.762659e-01,-6.769569e-03,-3.840771e-03,1.306033e+00
328,9.840721e-01,-6.793077e-03,-3.840861e-03,1.308515e+00
329,9.901960e-01,-6.811487e-03,-3.840899e-03,1.311005e+00
330,9.941893e-01,-6.823444e-03,-3.840876e-03,1.313504e+00
331,9.959369e-01,-6.828592e-03,-3.840781e-03,1.316009e+00
332,9.956544e-01,-6.827598e-03,-3.840635e-03,1.318519e+00
333,9.937963e-01,-6.821875e-03,-3.840486e-03,1.321031e+00
334,9.909160e-01,-6.813106e-03,-3.840358e-03,1.323543e+00
335,9.875148e-01,-6.802814e-03,-3.840269e-03,1.326053e+00
336,9.839279e-01,-6.792009e-03,-3.840226e-03,1.328558e+00
337,9.802974e-01,-6.781087e-03,-3.840195e-03,1.331058e+00
338,9.766518e-01,-6.770099e-03,-3.840143e-03,1.333549e+00
339,9.730392e-01,-6.759181e-03,-3.840064e-03,1.336032e+00
340,9.696086e-01,-6.748787e-03,-3.839962e-03,1.338504e+00
341,9.665786e-01,-6.739613e-03,-3.839877e-03,1.340966e+00
342,9.641335e-01,-6.732210e-03,-3.839810e-03,1.343417e+00
343,9.623452e-01,-6.726835e-03,-3.839800e-03,1.345855e+00
344,9.611688e-01,-6.723315e-03,-3.839808e-03,1.348282e+00
