TimeStep,Temp,PotEnergy,TotEnergy,MeanSqDisp
0,4.495807e-01,-1.299284e-02,-1.164410e-02,5.809475e-03
1,4.483092e-01,-1.298887e-02,-1.164394e-02,1.161354e-02
2,4.461475e-01,-1.298212e-02,-1.164368e-02,1.740658e-02
3,4.430374e-01,-1.297243e-02,-1.164332e-02,2.318264e-02
4,4.389013e-01,-1.295956e-02,-1.164285e-02,2.893526e-02
5,4.336435e-01,-1.294324e-02,-1.164231e-02,3.465732e-02
6,4.271536e-01,-1.292316e-02,-1.164170e-02,4.034088e-02
7,4.193118e-01,-1.289898e-02,-1.164105e-02,4.597701e-02
8,4.099975e-01,-1.287037e-02,-1.164038e-02,5.155563e-02
9,3.991014e-01,-1.283701e-02,-1.163970e-02,5.706545e-02
10,3.865435e-01,-1.279869e-02,-1.163906e-02,6.249382e-02
11,3.722961e-01,-1.275534e-02,-1.163845e-02,6.782673e-02
12,3.564106e-01,-1.270709e-02,-1.163786e-02,7.304894e-02
13,3.390458e-01,-1.265439e-02,-1.163725e-02,7.814419e-02
14,3.204893e-01,-1.259811e-02,-1.163664e-02,8.309557e-02
15,3.011652e-01,-1.253951e-02,-1.163601e-02,8.788615e-02
16,2.816181e-01,-1.248025e-02,-1.163540e-02,9.249968e-02
17,2.624715e-01,-1.242224e-02,-1.163482e-02,9.692144e-02
18,2.443642e-01,-1.236738e-02,-1.163429e-02,1.011391e-01
19,2.278785e-01,-1.231744e-02,-1.163381e-02,1.051433e-01
20,2.134768e-01,-1.227383e-02,-1.163340e-02,1.089284e-01
21,2.014595e-01,-1.223745e-02,-1.163307e-02,1.124923e-01
22,1.919514e-01,-1.220865e-02,-1.163279e-02,1.158368e-01
23,1.849151e-01,-1.218732e-02,-1.163257e-02,1.189666e-01
24,1.801823e-01,-1.217293e-02,-1.163238e-02,1.218895e-01
25,1.774947e-01,-1.216471e-02,-1.163223e-02,1.246154e-01
26,1.765431e-01,-1.216174e-02,-1.163211e-02,1.271555e-01
27,1.770018e-01,-1.216301e-02,-1.163201e-02,1.295221e-01
28,1.785533e-01,-1.216758e-02,-1.163192e-02,1.317279e-01
29,1.809060e-01,-1.217457e-02,-1.163185e-02,1.337855e-01
30,1.838049e-01,-1.218319e-02,-1.163178e-02,1.357073e-01
31,1.870376e-01,-1.219282e-02,-1.163171e-02,1.375051e-01
32,1.904364e-01,-1.220295e-02,-1.163164e-02,1.391898e-01
33,1.938780e-01,-1.221322e-02,-1.163158e-02,1.407716e-01
34,1.972789e-01,-1.222336e-02,-1.163153e-02,1.422599e-01
35,2.005887e-01,-1.223324e-02,-1.163148e-02,1.436631e-01
36,2.037800e-01,-1.224278e-02,-1.163144e-02,1.449890e-01
37,2.068373e-01,-1.225194e-02,-1.163142e-02,1.462446e-01
38,2.097467e-01,-1.226066e-02,-1.163142e-02,1.474364e-01
39,2.124899e-01,-1.226889e-02,-1.163142e-02,1.485702e-01
40,2.150417e-01,-1.227657e-02,-1.163144e-02,1.496514e-01
41,2.173737e-01,-1.228359e-02,-1.163147e-02,1.506849e-01
42,2.194590e-01,-1.228986e-02,-1.163148e-02,1.516750e-01
43,2.212779e-01,-1.229533e-02,-1.163150e-02,1.526257e-01
44,2.228215e-01,-1.229998e-02,-1.163152e-02,1.535401e-01
45,2.240930e-01,-1.230381e-02,-1.163153e-02,1.544213e-01
46,2.251073e-01,-1.230685e-02,-1.163152e-02,1.552716e-01
47,2.258880e-01,-1.230919e-02,-1.163152e-02,1.560929e-01
48,2.264646e-01,-1.231092e-02,-1.163152e-02,1.568868e-01
49,2.268680e-01,-1.231212e-02,-1.163152e-02,1.576546e-01
50,2.271271e-01,-1.231289e-02,-1.163150e-02,1.583973e-01
51,2.272666e-01,-1.231330e-02,-1.163150e-02,1.591155e-01
52,2.273063e-01,-1.231342e-02,-1.163150e-02,1.598099e-01
53,2.272623e-01,-1.231329e-02,-1.163151e-02,1.604808e-01
54,2.271493e-01,-1.231295e-02,-1.163150e-02,1.611286e-01
55,2.269827e-01,-1.231245e-02,-1.163150e-02,1.617533e-01
56,2.267800e-01,-1.231184e-02,-1.163150e-02,1.623549e-01
57,2.265615e-01,-1.231119e-02,-1.163150e-02,1.629334e-01
58,2.263496e-01,-1.231056e-02,-1.163151e-02,1.634887e-01
59,2.261677e-01,-1.231003e-02,-1.163153e-02,1.640207e-01
60,2.260385e-01,-1.230968e-02,-1.163156e-02,1.645292e-01
61,2.259824e-01,-1.230955e-02,-1.163160e-02,1.650141e-01
62,2.260165e-01,-1.230970e-02,-1.163165e-02,1.654755e-01
63,2.261532e-01,-1.231016e-02,-1.163170e-02,1.659134e-01
64,2.264007e-01,-1.231095e-02,-1.163175e-02,1.663282e-01
65,2.267623e-01,-1.231209e-02,-1.163180e-02,1.667200e-01
66,2.272372e-01,-1.231358e-02,-1.163186e-02,1.670895e-01
67,2.278202e-01,-1.231539e-02,-1.163193e-02,1.674371e-01
68,2.285024e-01,-1.231751e-02,-1.163200e-02,1.677638e-01
69,2.292709e-01,-1.231988e-02,-1.163206e-02,1.680703e-01
70,2.301092e-01,-1.232245e-02,-1.163212e-02,1.683577e-01
71,2.309970e-01,-1.232517e-02,-1.163218e-02,1.686270e-01
72,2.319111e-01,-1.232797e-02,-1.163224e-02,1.688794e-01
73,2.328260e-01,-1.233077e-02,-1.163229e-02,1.691161e-01
74,2.337147e-01,-1.233349e-02,-1.163234e-02,1.693383e-01
75,2.345503e-01,-1.233606e-02,-1.163241e-02,1.695471e-01
76,2.353085e-01,-1.233840e-02,-1.163247e-02,1.697436e-01
77,2.359702e-01,-1.234043e-02,-1.163252e-02,1.699289e-01
78,2.365245e-01,-1.234214e-02,-1.163257e-02,1.701038e-01
79,2.369705e-01,-1.234352e-02,-1.163261e-02,1.702690e-01
80,2.373191e-01,-1.234461e-02,-1.163266e-02,1.704250e-01
81,2.375920e-01,-1.234549e-02,-1.163272e-02,1.705722e-01
82,2.378200e-01,-1.234624e-02,-1.163278e-02,1.707109e-01
83,2.380398e-01,-1.234698e-02,-1.163286e-02,1.708412e-01
84,2.382904e-01,-1.234781e-02,-1.163294e-02,1.709633e-01
85,2.386093e-01,-1.234885e-02,-1.163302e-02,1.710773e-01
86,2.390296e-01,-1.235019e-02,-1.163310e-02,1.711834e-01
87,2.395771e-01,-1.235192e-02,-1.163319e-02,1.712819e-01
88,2.402678e-01,-1.235408e-02,-1.163328e-02,1.713733e-01
89,2.411076e-01,-1.235669e-02,-1.163337e-02,1.714583e-01
90,2.420913e-01,-1.235973e-02,-1.163346e-02,1.715376e-01
91,2.432042e-01,-1.236316e-02,-1.163355e-02,1.716122e-01
92,2.444246e-01,-1.236692e-02,-1.163365e-02,1.716833e-01
93,2.457265e-01,-1.237093e-02,-1.163375e-02,1.717523e-01
94,2.470823e-01,-1.237511e-02,-1.163387e-02,1.718205e-01
95,2.484657e-01,-1.237939e-02,-1.163399e-02,1.718893e-01
96,2.498525e-01,-1.238366e-02,-1.163411e-02,1.719602e-01
97,2.512212e-01,-1.238788e-02,-1.163422e-02,1.720347e-01
98,2.525536e-01,-1.239199e-02,-1.163433e-02,1.721143e-01
99,2.538331e-01,-1.239596e-02,-1.163446e-02,1.722003e-01
100,4.511105e-01,-1.239944e-02,-1.104611e-02,1.723666e-01
101,4.511224e-01,-1.239960e-02,-1.104624e-02,1.726270e-01
102,4.500564e-01,-1.239651e-02,-1.104634e-02,1.729809e-01
103,4.479435e-01,-1.239026e-02,-1.104643e-02,1.734264e-01
104,4.448202e-01,-1.238094e-02,-1.104648e-02,1.739602e-01
105,4.407265e-01,-1.236870e-02,-1.104652e-02,1.745779e-01
106,4.357073e-01,-1.235368e-02,-1.104656e-02,1.752738e-01
107,4.298179e-01,-1.233603e-02,-1.104658e-02,1.760413e-01
108,4.231320e-01,-1.231598e-02,-1.104659e-02,1.768727e-01
109,4.157525e-01,-1.229386e-02,-1.104660e-02,1.777594e-01
110,4.078208e-01,-1.227006e-02,-1.104660e-02,1.786923e-01
111,3.995241e-01,-1.224517e-02,-1.104660e-02,1.796616e-01
112,3.910963e-01,-1.221989e-02,-1.104660e-02,1.806572e-01
113,3.828063e-01,-1.219501e-02,-1.104659e-02,1.816692e-01
114,3.749318e-01,-1.217138e-02,-1.104659e-02,1.826880e-01
115,3.677197e-01,-1.214976e-02,-1.104660e-02,1.837049e-01
116,3.613466e-01,-1.213069e-02,-1.104665e-02,1.847120e-01
117,3.558961e-01,-1.211439e-02,-1.104670e-02,1.857031e-01
118,3.513638e-01,-1.210084e-02,-1.104675e-02,1.866728e-01
119,3.476842e-01,-1.208985e-02,-1.104679e-02,1.876175e-01
120,3.447656e-01,-1.208113e-02,-1.104683e-02,1.885340e-01
121,3.425177e-01,-1.207442e-02,-1.104687e-02,1.894205e-01
122,3.408650e-01,-1.206949e-02,-1.104689e-02,1.902757e-01
123,3.397476e-01,-1.206615e-02,-1.104691e-02,1.910987e-01
124,3.391129e-01,-1.206425e-02,-1.104691e-02,1.918895e-01
125,3.389063e-01,-1.206362e-02,-1.104691e-02,1.926482e-01
126,3.390657e-01,-1.206410e-02,-1.104690e-02,1.933754e-01
127,3.395229e-01,-1.206547e-02,-1.104690e-02,1.940721e-01
128,3.402085e-01,-1.206753e-02,-1.104690e-02,1.947394e-01
129,3.410592e-01,-1.207008e-02,-1.104690e-02,1.953787e-01
130,3.420213e-01,-1.207297e-02,-1.104690e-02,1.959914e-01
131,3.430519e-01,-1.207607e-02,-1.104691e-02,1.965791e-01
132,3.441161e-01,-1.207926e-02,-1.104691e-02,1.971433e-01
133,3.451829e-01,-1.208248e-02,-1.104693e-02,1.976855e-01
134,3.462217e-01,-1.208562e-02,-1.104696e-02,1.982071e-01
135,3.471997e-01,-1.208860e-02,-1.104700e-02,1.987097e-01
136,3.480820e-01,-1.209131e-02,-1.104706e-02,1.991946e-01
137,3.488347e-01,-1.209362e-02,-1.104712e-02,1.996629e-01
138,3.494291e-01,-1.209546e-02,-1.104717e-02,2.001157e-01
139,3.498476e-01,-1.209677e-02,-1.104723e-02,2.005539e-01
140,3.500863e-01,-1.209753e-02,-1.104727e-02,2.009780e-01
141,3.501557e-01,-1.209777e-02,-1.104731e-02,2.013885e-01
142,3.500777e-01,-1.209759e-02,-1.104735e-02,2.017855e-01
143,3.498807e-01,-1.209705e-02,-1.104741e-02,2.021690e-01
144,3.495950e-01,-1.209624e-02,-1.104746e-02,2.025388e-01
145,3.492507e-01,-1.209526e-02,-1.104750e-02,2.028948e-01
146,3.488788e-01,-1.209420e-02,-1.104756e-02,2.032366e-01
147,3.485139e-01,-1.209315e-02,-1.104761e-02,2.035638e-01
148,3.481985e-01,-1.209225e-02,-1.104765e-02,2.038760e-01
149,3.479845e-01,-1.209165e-02,-1.104770e-02,2.041730e-01
150,3.479315e-01,-1.209152e-02,-1.104773e-02,2.044543e-01
151,3.481029e-01,-1.209204e-02,-1.104774e-02,2.047199e-01
152,3.485588e-01,-1.209342e-02,-1.104775e-02,2.049700e-01
153,3.493466e-01,-1.209579e-02,-1.104775e-02,2.052048e-01
154,3.504911e-01,-1.209924e-02,-1.104777e-02,2.054251e-01
155,3.519827e-01,-1.210375e-02,-1.104781e-02,2.056321e-01
156,3.537698e-01,-1.210916e-02,-1.104785e-02,2.058274e-01
157,3.557564e-01,-1.211517e-02,-1.104790e-02,2.060127e-01
158,3.578087e-01,-1.212137e-02,-1.104795e-02,2.061904e-01
159,3.597713e-01,-1.212730e-02,-1.104799e-02,2.063624e-01
160,3.614890e-01,-1.213247e-02,-1.104801e-02,2.065311e-01
161,3.628283e-01,-1.213650e-02,-1.104801e-02,2.066982e-01
162,3.636957e-01,-1.213909e-02,-1.104800e-02,2.068651e-01
163,3.640463e-01,-1.214012e-02,-1.104798e-02,2.070327e-01
164,3.638860e-01,-1.213960e-02,-1.104795e-02,2.072012e-01
165,3.632647e-01,-1.213771e-02,-1.104792e-02,2.073704e-01
166,3.622657e-01,-1.213468e-02,-1.104788e-02,2.075396e-01
167,3.609913e-01,-1.213080e-02,-1.104783e-02,2.077075e-01
168,3.595479e-01,-1.212642e-02,-1.104778e-02,2.078728e-01
169,3.580318e-01,-1.212183e-02,-1.104773e-02,2.080339e-01
170,3.565185e-01,-1.211725e-02,-1.104769e-02,2.081893e-01
171,3.550557e-01,-1.211283e-02,-1.104766e-02,2.083374e-01
172,3.536616e-01,-1.210863e-02,-1.104764e-02,2.084769e-01
173,3.523320e-01,-1.210460e-02,-1.104760e-02,2.086066e-01
174,3.510528e-01,-1.210072e-02,-1.104756e-02,2.087250e-01
175,3.498189e-01,-1.209698e-02,-1.104753e-02,2.088311e-01
176,3.486519e-01,-1.209345e-02,-1.104750e-02,2.089236e-01
177,3.476057e-01,-1.209028e-02,-1.104746e-02,2.090014e-01
178,3.467539e-01,-1.208768e-02,-1.104741e-02,2.090633e-01
179,3.461584e-01,-1.208587e-02,-1.104739e-02,2.091086e-01
180,3.458403e-01,-1.208490e-02,-1.104738e-02,2.091365e-01
181,3.457720e-01,-1.208470e-02,-1.104738e-02,2.091469e-01
182,3.458999e-01,-1.208508e-02,-1.104738e-02,2.091397e-01
183,3.461785e-01,-1.208591e-02,-1.104738e-02,2.091150e-01
184,3.465940e-01,-1.208715e-02,-1.104736e-02,2.090731e-01
185,3.471658e-01,-1.208884e-02,-1.104734e-02,2.090144e-01
186,3.479295e-01,-1.209112e-02,-1.104733e-02,2.089393e-01
187,3.489165e-01,-1.209408e-02,-1.104733e-02,2.088487e-01
188,3.501392e-01,-1.209775e-02,-1.104733e-02,2.087432e-01
189,3.515859e-01,-1.210210e-02,-1.104735e-02,2.086243e-01
190,3.532232e-01,-1.210704e-02,-1.104737e-02,2.084933e-01
191,3.550005e-01,-1.211239e-02,-1.104739e-02,2.083519e-01
192,3.568566e-01,-1.211799e-02,-1.104742e-02,2.082020e-01
193,3.587268e-01,-1.212362e-02,-1.104744e-02,2.080454e-01
194,3.605521e-01,-1.212910e-02,-1.104745e-02,2.078843e-01
195,3.622887e-01,-1.213432e-02,-1.104746e-02,2.077203e-01
196,3.639132e-01,-1.213921e-02,-1.104747e-02,2.075554e-01
197,3.654227e-01,-1.214375e-02,-1.104748e-02,2.073911e-01
198,3.668269e-01,-1.214796e-02,-1.104748e-02,2.072289e-01
199,3.681399e-01,-1.215192e-02,-1.104750e-02,2.070702e-01
200,4.510986e-01,-1.215522e-02,-1.080193e-02,2.069145e-01
201,4.516000e-01,-1.215672e-02,-1.080192e-02,2.067942e-01
202,4.515446e-01,-1.215656e-02,-1.080193e-02,2.067098e-01
203,4.509900e-01,-1.215490e-02,-1.080193e-02,2.066611e-01
204,4.500074e-01,-1.215195e-02,-1.080193e-02,2.066474e-01
205,4.486732e-01,-1.214794e-02,-1.080192e-02,2.066676e-01
206,4.470623e-01,-1.214310e-02,-1.080192e-02,2.067201e-01
207,4.452444e-01,-1.213766e-02,-1.080192e-02,2.068034e-01
208,4.432834e-01,-1.213177e-02,-1.080192e-02,2.069153e-01
209,4.412388e-01,-1.212564e-02,-1.080193e-02,2.070537e-01
210,4.391666e-01,-1.211945e-02,-1.080195e-02,2.072167e-01
211,4.371187e-01,-1.211332e-02,-1.080197e-02,2.074018e-01
212,4.351419e-01,-1.210739e-02,-1.080197e-02,2.076072e-01
213,4.332745e-01,-1.210176e-02,-1.080194e-02,2.078307e-01
214,4.315418e-01,-1.209652e-02,-1.080189e-02,2.080704e-01
215,4.299490e-01,-1.209171e-02,-1.080186e-02,2.083248e-01
216,4.284750e-01,-1.208725e-02,-1.080182e-02,2.085923e-01
217,4.270682e-01,-1.208300e-02,-1.080179e-02,2.088717e-01
218,4.256518e-01,-1.207870e-02,-1.080174e-02,2.091617e-01
219,4.241369e-01,-1.207409e-02,-1.080168e-02,2.094612e-01
220,4.224443e-01,-1.206894e-02,-1.080161e-02,2.097687e-01
221,4.205266e-01,-1.206311e-02,-1.080153e-02,2.100828e-01
222,4.183864e-01,-1.205660e-02,-1.080144e-02,2.104016e-01
223,4.160873e-01,-1.204961e-02,-1.080134e-02,2.107230e-01
224,4.137541e-01,-1.204249e-02,-1.080123e-02,2.110445e-01
225,4.115633e-01,-1.203579e-02,-1.080110e-02,2.113637e-01
226,4.097204e-01,-1.203013e-02,-1.080097e-02,2.116782e-01
227,4.084267e-01,-1.202616e-02,-1.080088e-02,2.119860e-01
228,4.078416e-01,-1.202435e-02,-1.080083e-02,2.122859e-01
229,4.080505e-01,-1.202495e-02,-1.080080e-02,2.125773e-01
230,4.090496e-01,-1.202795e-02,-1.080080e-02,2.128607e-01
231,4.107489e-01,-1.203306e-02,-1.080081e-02,2.131374e-01
232,4.129876e-01,-1.203980e-02,-1.080083e-02,2.134095e-01
233,4.155561e-01,-1.204754e-02,-1.080087e-02,2.136796e-01
234,4.182195e-01,-1.205556e-02,-1.080091e-02,2.139507e-01
235,4.207419e-01,-1.206317e-02,-1.080095e-02,2.142259e-01
236,4.229073e-01,-1.206973e-02,-1.080101e-02,2.145081e-01
237,4.245382e-01,-1.207469e-02,-1.080107e-02,2.147999e-01
238,4.255069e-01,-1.207767e-02,-1.080115e-02,2.151030e-01
239,4.257419e-01,-1.207843e-02,-1.080121e-02,2.154187e-01
240,4.252285e-01,-1.207695e-02,-1.080127e-02,2.157475e-01
241,4.240043e-01,-1.207333e-02,-1.080132e-02,2.160891e-01
242,4.221548e-01,-1.206783e-02,-1.080137e-02,2.164423e-01
243,4.198063e-01,-1.206083e-02,-1.080141e-02,2.168055e-01
244,4.171194e-01,-1.205278e-02,-1.080143e-02,2.171765e-01
245,4.142798e-01,-1.204429e-02,-1.080146e-02,2.175529e-01
246,4.114852e-01,-1.203595e-02,-1.080150e-02,2.179320e-01
247,4.089258e-01,-1.202833e-02,-1.080155e-02,2.183114e-01
248,4.067632e-01,-1.202190e-02,-1.080161e-02,2.186889e-01
249,4.051091e-01,-1.201701e-02,-1.080168e-02,2.190627e-01
250,4.040098e-01,-1.201379e-02,-1.080176e-02,2.194318e-01
251,4.034395e-01,-1.201216e-02,-1.080184e-02,2.197955e-01
252,4.033042e-01,-1.201185e-02,-1.080194e-02,2.201542e-01
253,4.034561e-01,-1.201239e-02,-1.080202e-02,2.205082e-01
254,4.037172e-01,-1.201322e-02,-1.080207e-02,2.208584e-01
255,4.039058e-01,-1.201383e-02,-1.080211e-02,2.212057e-01
256,4.038614e-01,-1.201374e-02,-1.080215e-02,2.215510e-01
257,4.034641e-01,-1.201258e-02,-1.080219e-02,2.218948e-01
258,4.026445e-01,-1.201013e-02,-1.080220e-02,2.222370e-01
259,4.013865e-01,-1.200636e-02,-1.080220e-02,2.225772e-01
260,3.997252e-01,-1.200135e-02,-1.080218e-02,2.229145e-01
261,3.977388e-01,-1.199537e-02,-1.080216e-02,2.232474e-01
262,3.955375e-01,-1.198875e-02,-1.080214e-02,2.235740e-01
263,3.932490e-01,-1.198186e-02,-1.080211e-02,2.238923e-01
264,3.910032e-01,-1.197510e-02,-1.080209e-02,2.242000e-01
265,3.889189e-01,-1.196882e-02,-1.080207e-02,2.244951e-01
266,3.870942e-01,-1.196334e-02,-1.080206e-02,2.247756e-01
267,3.856025e-01,-1.195887e-02,-1.080207e-02,2.250398e-01
268,3.844924e-01,-1.195556e-02,-1.080208e-02,2.252865e-01
269,3.837914e-01,-1.195347e-02,-1.080210e-02,2.255148e-01
270,3.835125e-01,-1.195263e-02,-1.080210e-02,2.257241e-01
271,3.836628e-01,-1.195308e-02,-1.080209e-02,2.259145e-01
272,3.842503e-01,-1.195484e-02,-1.080209e-02,2.260861e-01
273,3.852852e-01,-1.195794e-02,-1.080209e-02,2.262399e-01
274,3.867721e-01,-1.196241e-02,-1.080210e-02,2.263769e-01
275,3.886981e-01,-1.196819e-02,-1.080209e-02,2.264988e-01
276,3.910205e-01,-1.197514e-02,-1.080208e-02,2.266077e-01
277,3.936605e-01,-1.198305e-02,-1.080206e-02,2.267060e-01
278,3.965047e-01,-1.199155e-02,-1.080204e-02,2.267964e-01
279,3.994137e-01,-1.200024e-02,-1.080200e-02,2.268819e-01
280,4.022338e-01,-1.200864e-02,-1.080194e-02,2.269655e-01
281,4.048123e-01,-1.201630e-02,-1.080187e-02,2.270500e-01
282,4.070121e-01,-1.202282e-02,-1.080178e-02,2.271382e-01
283,4.087264e-01,-1.202786e-02,-1.080169e-02,2.272321e-01
284,4.098881e-01,-1.203125e-02,-1.080159e-02,2.273335e-01
285,4.104737e-01,-1.203288e-02,-1.080146e-02,2.274434e-01
286,4.104995e-01,-1.203282e-02,-1.080132e-02,2.275625e-01
287,4.100120e-01,-1.203123e-02,-1.080119e-02,2.276907e-01
288,4.090759e-01,-1.202829e-02,-1.080106e-02,2.278276e-01
289,4.077644e-01,-1.202423e-02,-1.080094e-02,2.279722e-01
290,4.061527e-01,-1.201928e-02,-1.080082e-02,2.281234e-01
291,4.043188e-01,-1.201364e-02,-1.080068e-02,2.282796e-01
292,4.023479e-01,-1.200757e-02,-1.080053e-02,2.284392e-01
293,4.003384e-01,-1.200139e-02,-1.080037e-02,2.286004e-01
294,3.984048e-01,-1.199544e-02,-1.080022e-02,2.287613e-01
295,3.966734e-01,-1.199010e-02,-1.080008e-02,2.289200e-01
296,3.952700e-01,-1.198574e-02,-1.079993e-02,2.290749e-01
297,3.942992e-01,-1.198269e-02,-1.079979e-02,2.292247e-01
298,3.938205e-01,-1.198113e-02,-1.079967e-02,2.293685e-01
299,3.938286e-01,-1.198106e-02,-1.079957e-02,2.295057e-01
300,4.502380e-01,-1.198170e-02,-1.063099e-02,2.296550e-01
301,4.503580e-01,-1.198199e-02,-1.063091e-02,2.298164e-01
302,4.502046e-01,-1.198146e-02,-1.063085e-02,2.299902e-01
303,4.496469e-01,-1.197973e-02,-1.063078e-02,2.301762e-01
304,4.486107e-01,-1.197656e-02,-1.063072e-02,2.303738e-01
305,4.470941e-01,-1.197194e-02,-1.063066e-02,2.305820e-01
306,4.451613e-01,-1.196608e-02,-1.063059e-02,2.307991e-01
307,4.429203e-01,-1.195928e-02,-1.063052e-02,2.310231e-01
308,4.404909e-01,-1.195192e-02,-1.063045e-02,2.312517e-01
309,4.379774e-01,-1.194431e-02,-1.063038e-02,2.314825e-01
310,4.354555e-01,-1.193670e-02,-1.063033e-02,2.317131e-01
311,4.329773e-01,-1.192923e-02,-1.063030e-02,2.319409e-01
312,4.305910e-01,-1.192204e-02,-1.063027e-02,2.321637e-01
313,4.283623e-01,-1.191532e-02,-1.063023e-02,2.323791e-01
314,4.263853e-01,-1.190935e-02,-1.063019e-02,2.325849e-01
315,4.247749e-01,-1.190448e-02,-1.063015e-02,2.327793e-01
316,4.236421e-01,-1.190102e-02,-1.063009e-02,2.329605e-01
317,4.230642e-01,-1.189925e-02,-1.063006e-02,2.331274e-01
318,4.230637e-01,-1.189925e-02,-1.063006e-02,2.332795e-01
319,4.236048e-01,-1.190089e-02,-1.063008e-02,2.334168e-01
320,4.246014e-01,-1.190392e-02,-1.063012e-02,2.335398e-01
321,4.259299e-01,-1.190797e-02,-1.063018e-02,2.336495e-01
322,4.274398e-01,-1.191256e-02,-1.063024e-02,2.337473e-01
323,4.289634e-01,-1.191719e-02,-1.063030e-02,2.338348e-01
324,4.303302e-01,-1.192136e-02,-1.063037e-02,2.339134e-01
325,4.313851e-01,-1.192458e-02,-1.063042e-02,2.339845e-01
326,4.320087e-01,-1.192651e-02,-1.063048e-02,2.340492e-01
327,4.321340e-01,-1.192693e-02,-1.063053e-02,2.341082e-01
328,4.317539e-01,-1.192582e-02,-1.063056e-02,2.341616e-01
329,4.309206e-01,-1.192335e-02,-1.063059e-02,2.342089e-01
330,4.297363e-01,-1.191983e-02,-1.063062e-02,2.342495e-01
331,4.283398e-01,-1.191565e-02,-1.063063e-02,2.342822e-01
332,4.268901e-01,-1.191130e-02,-1.063063e-02,2.343058e-01
333,4.255485e-01,-1.190728e-02,-1.063063e-02,2.343188e-01
334,4.244638e-01,-1.190402e-02,-1.063063e-02,2.343202e-01
335,4.237596e-01,-1.190192e-02,-1.063064e-02,2.343089e-01
336,4.235287e-01,-1.190124e-02,-1.063065e-02,2.342844e-01
337,4.238322e-01,-1.190219e-02,-1.063069e-02,2.342465e-01
338,4.247001e-01,-1.190484e-02,-1.063074e-02,2.341958e-01
339,4.261306e-01,-1.190917e-02,-1.063078e-02,2.341329e-01
340,4.280860e-01,-1.191508e-02,-1.063082e-02,2.340595e-01
341,4.304892e-01,-1.192232e-02,-1.063085e-02,2.339773e-01
342,4.332263e-01,-1.193056e-02,-1.063089e-02,2.338888e-01
343,4.361576e-01,-1.193940e-02,-1.063092e-02,2.337965e-01
344,4.391335e-01,-1.194836e-02,-1.063096e-02,2.337034e-01
