TimeStep,Temp,PotEnergy,TotEnergy,MeanSqDisp
0,6.502147e-01,-3.824826e-04,-2.936231e-04,6.982120e-03
1,6.508555e-01,-3.825621e-04,-2.936150e-04,1.396655e-02
2,6.519125e-01,-3.826931e-04,-2.936016e-04,2.095555e-02
3,6.533686e-01,-3.828733e-04,-2.935828e-04,2.795131e-02
4,6.551987e-01,-3.830992e-04,-2.935585e-04,3.495591e-02
5,6.573685e-01,-3.833661e-04,-2.935289e-04,4.197124e-02
6,6.598325e-01,-3.836678e-04,-2.934939e-04,4.899899e-02
7,6.625328e-01,-3.839964e-04,-2.934535e-04,5.604055e-02
8,6.653957e-01,-3.843421e-04,-2.934079e-04,6.309695e-02
9,6.683291e-01,-3.846930e-04,-2.933579e-04,7.016878e-02
10,6.712192e-01,-3.850347e-04,-2.933047e-04,7.725609e-02
11,6.739266e-01,-3.853495e-04,-2.932495e-04,8.435824e-02
12,6.762836e-01,-3.856160e-04,-2.931939e-04,9.147377e-02
13,6.780919e-01,-3.858092e-04,-2.931400e-04,9.860023e-02
14,6.791239e-01,-3.858996e-04,-2.930893e-04,1.057340e-01
15,6.791289e-01,-3.858537e-04,-2.930427e-04,1.128701e-01
16,6.778465e-01,-3.856367e-04,-2.930009e-04,1.200020e-01
17,6.750300e-01,-3.852150e-04,-2.929642e-04,1.271213e-01
18,6.704785e-01,-3.845616e-04,-2.929328e-04,1.342179e-01
19,6.640743e-01,-3.836596e-04,-2.929060e-04,1.412799e-01
20,6.558171e-01,-3.825089e-04,-2.928837e-04,1.482938e-01
21,6.458445e-01,-3.811278e-04,-2.928655e-04,1.552447e-01
22,6.344323e-01,-3.795536e-04,-2.928510e-04,1.621171e-01
23,6.219716e-01,-3.778400e-04,-2.928403e-04,1.688954e-01
24,6.089314e-01,-3.760507e-04,-2.928331e-04,1.755647e-01
25,5.958145e-01,-3.742545e-04,-2.928294e-04,1.821113e-01
26,5.831157e-01,-3.725188e-04,-2.928291e-04,1.885233e-01
27,5.712864e-01,-3.709053e-04,-2.928323e-04,1.947910e-01
28,5.607058e-01,-3.694658e-04,-2.928387e-04,2.009073e-01
29,5.516616e-01,-3.682395e-04,-2.928484e-04,2.068677e-01
30,5.443373e-01,-3.672510e-04,-2.928609e-04,2.126701e-01
31,5.388096e-01,-3.665104e-04,-2.928757e-04,2.183152e-01
32,5.350554e-01,-3.660143e-04,-2.928926e-04,2.238056e-01
33,5.329662e-01,-3.657472e-04,-2.929111e-04,2.291457e-01
34,5.323680e-01,-3.656852e-04,-2.929308e-04,2.343418e-01
35,5.330429e-01,-3.657984e-04,-2.929518e-04,2.394009e-01
36,5.347505e-01,-3.660536e-04,-2.929737e-04,2.443310e-01
37,5.372475e-01,-3.664174e-04,-2.929962e-04,2.491402e-01
38,5.403048e-01,-3.668583e-04,-2.930193e-04,2.538371e-01
39,5.437205e-01,-3.673485e-04,-2.930427e-04,2.584296e-01
40,5.473268e-01,-3.678649e-04,-2.930662e-04,2.629258e-01
41,5.509937e-01,-3.683899e-04,-2.930901e-04,2.673330e-01
42,5.546264e-01,-3.689102e-04,-2.931140e-04,2.716579e-01
43,5.581614e-01,-3.694174e-04,-2.931380e-04,2.759069e-01
44,5.615604e-01,-3.699064e-04,-2.931625e-04,2.800857e-01
45,5.648076e-01,-3.703750e-04,-2.931874e-04,2.841994e-01
46,5.679050e-01,-3.708235e-04,-2.932126e-04,2.882527e-01
47,5.708594e-01,-3.712529e-04,-2.932382e-04,2.922498e-01
48,5.736637e-01,-3.716622e-04,-2.932643e-04,2.961946e-01
49,5.762872e-01,-3.720473e-04,-2.932908e-04,3.000906e-01
50,5.786885e-01,-3.724019e-04,-2.933172e-04,3.039411e-01
51,5.808363e-01,-3.727218e-04,-2.933437e-04,3.077489e-01
52,5.827226e-01,-3.730060e-04,-2.933701e-04,3.115165e-01
53,5.843676e-01,-3.732572e-04,-2.933965e-04,3.152460e-01
54,5.858168e-01,-3.734815e-04,-2.934227e-04,3.189393e-01
55,5.871346e-01,-3.736879e-04,-2.934490e-04,3.225980e-01
56,5.883928e-01,-3.738864e-04,-2.934756e-04,3.262236e-01
57,5.896575e-01,-3.740860e-04,-2.935023e-04,3.298175e-01
58,5.909781e-01,-3.742932e-04,-2.935291e-04,3.333808e-01
59,5.923827e-01,-3.745120e-04,-2.935559e-04,3.369151e-01
60,5.938789e-01,-3.747434e-04,-2.935829e-04,3.404216e-01
61,5.954564e-01,-3.749860e-04,-2.936099e-04,3.439019e-01
62,5.970895e-01,-3.752362e-04,-2.936369e-04,3.473575e-01
63,5.987373e-01,-3.754885e-04,-2.936640e-04,3.507897e-01
64,6.003452e-01,-3.757355e-04,-2.936912e-04,3.542000e-01
65,6.018499e-01,-3.759680e-04,-2.937181e-04,3.575897e-01
66,6.031891e-01,-3.761779e-04,-2.937450e-04,3.609601e-01
67,6.043137e-01,-3.763581e-04,-2.937715e-04,3.643122e-01
68,6.051971e-01,-3.765048e-04,-2.937975e-04,3.676466e-01
69,6.058392e-01,-3.766182e-04,-2.938231e-04,3.709641e-01
70,6.062628e-01,-3.767013e-04,-2.938483e-04,3.742649e-01
71,6.065056e-01,-3.767592e-04,-2.938731e-04,3.775493e-01
72,6.066114e-01,-3.767980e-04,-2.938974e-04,3.808171e-01
73,6.066241e-01,-3.768236e-04,-2.939213e-04,3.840686e-01
74,6.065855e-01,-3.768419e-04,-2.939448e-04,3.873034e-01
75,6.065353e-01,-3.768582e-04,-2.939680e-04,3.905216e-01
76,6.065095e-01,-3.768776e-04,-2.939909e-04,3.937230e-01
77,6.065387e-01,-3.769040e-04,-2.940133e-04,3.969079e-01
78,6.066453e-01,-3.769406e-04,-2.940354e-04,4.000762e-01
79,6.068436e-01,-3.769893e-04,-2.940569e-04,4.032282e-01
80,6.071418e-01,-3.770513e-04,-2.940782e-04,4.063641e-01
81,6.075439e-01,-3.771271e-04,-2.940990e-04,4.094843e-01
82,6.080510e-01,-3.772170e-04,-2.941196e-04,4.125892e-01
83,6.086597e-01,-3.773203e-04,-2.941398e-04,4.156790e-01
84,6.093592e-01,-3.774357e-04,-2.941595e-04,4.187545e-01
85,6.101292e-01,-3.775601e-04,-2.941788e-04,4.218160e-01
86,6.109410e-01,-3.776899e-04,-2.941976e-04,4.248641e-01
87,6.117646e-01,-3.778208e-04,-2.942159e-04,4.278995e-01
88,6.125784e-01,-3.779499e-04,-2.942338e-04,4.309226e-01
89,6.133757e-01,-3.780763e-04,-2.942512e-04,4.339341e-01
90,6.141644e-01,-3.782012e-04,-2.942683e-04,4.369345e-01
91,6.149578e-01,-3.783266e-04,-2.942853e-04,4.399242e-01
92,6.157623e-01,-3.784534e-04,-2.943022e-04,4.429037e-01
93,6.165671e-01,-3.785801e-04,-2.943189e-04,4.458734e-01
94,6.173443e-01,-3.787027e-04,-2.943353e-04,4.488337e-01
95,6.180588e-01,-3.788164e-04,-2.943514e-04,4.517850e-01
96,6.186836e-01,-3.789175e-04,-2.943670e-04,4.547274e-01
97,6.192096e-01,-3.790045e-04,-2.943822e-04,4.576611e-01
98,6.196456e-01,-3.790787e-04,-2.943968e-04,4.605860e-01
99,6.200109e-01,-3.791428e-04,-2.944110e-04,4.635021e-01
100,6.203265e-01,-3.792000e-04,-2.944250e-04,4.664093e-01
101,6.206101e-01,-3.792527e-04,-2.944390e-04,4.693073e-01
102,6.208711e-01,-3.793022e-04,-2.944528e-04,4.721961e-01
103,6.211083e-01,-3.793483e-04,-2.944665e-04,4.750755e-01
104,6.213106e-01,-3.793896e-04,-2.944802e-04,4.779455e-01
105,6.214604e-01,-3.794235e-04,-2.944936e-04,4.808060e-01
106,6.215389e-01,-3.794475e-04,-2.945069e-04,4.836572e-01
107,6.215326e-01,-3.794596e-04,-2.945198e-04,4.864991e-01
108,6.214395e-01,-3.794596e-04,-2.945326e-04,4.893317e-01
109,6.212742e-01,-3.794495e-04,-2.945451e-04,4.921551e-01
110,6.210695e-01,-3.794336e-04,-2.945571e-04,4.949692e-01
111,6.208737e-01,-3.794183e-04,-2.945686e-04,4.977741e-01
112,6.207424e-01,-3.794116e-04,-2.945798e-04,5.005695e-01
113,6.207259e-01,-3.794203e-04,-2.945908e-04,5.033555e-01
114,6.208564e-01,-3.794488e-04,-2.946014e-04,5.061320e-01
115,6.211429e-01,-3.794981e-04,-2.946116e-04,5.088990e-01
116,6.215774e-01,-3.795673e-04,-2.946214e-04,5.116566e-01
117,6.221469e-01,-3.796544e-04,-2.946307e-04,5.144049e-01
118,6.228369e-01,-3.797578e-04,-2.946398e-04,5.171442e-01
119,6.236251e-01,-3.798744e-04,-2.946487e-04,5.198750e-01
120,6.244726e-01,-3.799990e-04,-2.946575e-04,5.225976e-01
121,6.253236e-01,-3.801243e-04,-2.946665e-04,5.253125e-01
122,6.261156e-01,-3.802416e-04,-2.946755e-04,5.280203e-01
123,6.267953e-01,-3.803433e-04,-2.946843e-04,5.307212e-01
124,6.273338e-01,-3.804255e-04,-2.946929e-04,5.334156e-01
125,6.277326e-01,-3.804884e-04,-2.947014e-04,5.361036e-01
126,6.280193e-01,-3.805359e-04,-2.947096e-04,5.387852e-01
127,6.282350e-01,-3.805736e-04,-2.947179e-04,5.414602e-01
128,6.284206e-01,-3.806074e-04,-2.947263e-04,5.441285e-01
129,6.286087e-01,-3.806417e-04,-2.947349e-04,5.467898e-01
130,6.288218e-01,-3.806794e-04,-2.947435e-04,5.494439e-01
131,6.290759e-01,-3.807229e-04,-2.947523e-04,5.520904e-01
132,6.293836e-01,-3.807740e-04,-2.947613e-04,5.547294e-01
133,6.297554e-01,-3.808338e-04,-2.947703e-04,5.573605e-01
134,6.301982e-01,-3.809034e-04,-2.947793e-04,5.599836e-01
135,6.307123e-01,-3.809829e-04,-2.947886e-04,5.625988e-01
136,6.312849e-01,-3.810704e-04,-2.947978e-04,5.652061e-01
137,6.318848e-01,-3.811620e-04,-2.948075e-04,5.678057e-01
138,6.324635e-01,-3.812509e-04,-2.948173e-04,5.703977e-01
139,6.329660e-01,-3.813293e-04,-2.948270e-04,5.729823e-01
140,6.333485e-01,-3.813913e-04,-2.948367e-04,5.755596e-01
141,6.335930e-01,-3.814340e-04,-2.948460e-04,5.781297e-01
142,6.337107e-01,-3.814593e-04,-2.948552e-04,5.806925e-01
143,6.337341e-01,-3.814716e-04,-2.948644e-04,5.832480e-01
144,6.337001e-01,-3.814762e-04,-2.948736e-04,5.857959e-01
145,6.336359e-01,-3.814768e-04,-2.948830e-04,5.883362e-01
146,6.335541e-01,-3.814751e-04,-2.948924e-04,5.908688e-01
147,6.334601e-01,-3.814715e-04,-2.949017e-04,5.933936e-01
148,6.333651e-01,-3.814676e-04,-2.949108e-04,5.959105e-01
149,6.332941e-01,-3.814669e-04,-2.949198e-04,5.984196e-01
150,6.332857e-01,-3.814746e-04,-2.949286e-04,6.009208e-01
151,6.333799e-01,-3.814962e-04,-2.949374e-04,6.034141e-01
152,6.336026e-01,-3.815355e-04,-2.949463e-04,6.058995e-01
153,6.339522e-01,-3.815923e-04,-2.949552e-04,6.083773e-01
154,6.343991e-01,-3.816625e-04,-2.949643e-04,6.108475e-01
155,6.348991e-01,-3.817397e-04,-2.949733e-04,6.133107e-01
156,6.354124e-01,-3.818187e-04,-2.949821e-04,6.157669e-01
157,6.359154e-01,-3.818962e-04,-2.949909e-04,6.182167e-01
158,6.364006e-01,-3.819711e-04,-2.949995e-04,6.206602e-01
159,6.368712e-01,-3.820441e-04,-2.950081e-04,6.230978e-01
160,6.373359e-01,-3.821162e-04,-2.950167e-04,6.255295e-01
161,6.378008e-01,-3.821884e-04,-2.950254e-04,6.279557e-01
162,6.382593e-01,-3.822599e-04,-2.950342e-04,6.303764e-01
163,6.386845e-01,-3.823268e-04,-2.950430e-04,6.327917e-01
164,6.390332e-01,-3.823831e-04,-2.950516e-04,6.352017e-01
165,6.392643e-01,-3.824230e-04,-2.950600e-04,6.376064e-01
166,6.393626e-01,-3.824444e-04,-2.950680e-04,6.400055e-01
167,6.393544e-01,-3.824510e-04,-2.950756e-04,6.423988e-01
168,6.392995e-01,-3.824510e-04,-2.950832e-04,6.447859e-01
169,6.392632e-01,-3.824538e-04,-2.950909e-04,6.471665e-01
170,6.392869e-01,-3.824651e-04,-2.950990e-04,6.495403e-01
171,6.393783e-01,-3.824857e-04,-2.951071e-04,6.519074e-01
172,6.395221e-01,-3.825136e-04,-2.951153e-04,6.542678e-01
173,6.396939e-01,-3.825451e-04,-2.951234e-04,6.566216e-01
174,6.398689e-01,-3.825770e-04,-2.951314e-04,6.589689e-01
175,6.400255e-01,-3.826061e-04,-2.951391e-04,6.613099e-01
176,6.401488e-01,-3.826305e-04,-2.951466e-04,6.636447e-01
177,6.402362e-01,-3.826499e-04,-2.951541e-04,6.659735e-01
178,6.403006e-01,-3.826659e-04,-2.951612e-04,6.682962e-01
179,6.403704e-01,-3.826824e-04,-2.951683e-04,6.706130e-01
180,6.404837e-01,-3.827048e-04,-2.951752e-04,6.729239e-01
181,6.406799e-01,-3.827385e-04,-2.951820e-04,6.752289e-01
182,6.409913e-01,-3.827880e-04,-2.951889e-04,6.775280e-01
183,6.414343e-01,-3.828552e-04,-2.951956e-04,6.798215e-01
184,6.420053e-01,-3.829399e-04,-2.952023e-04,6.821094e-01
185,6.426810e-01,-3.830389e-04,-2.952089e-04,6.843919e-01
186,6.434237e-01,-3.831471e-04,-2.952157e-04,6.866692e-01
187,6.441873e-01,-3.832581e-04,-2.952223e-04,6.889417e-01
188,6.449212e-01,-3.833650e-04,-2.952289e-04,6.912097e-01
189,6.455728e-01,-3.834606e-04,-2.952354e-04,6.934735e-01
190,6.460903e-01,-3.835375e-04,-2.952416e-04,6.957333e-01
191,6.464277e-01,-3.835896e-04,-2.952476e-04,6.979894e-01
192,6.465478e-01,-3.836121e-04,-2.952537e-04,7.002418e-01
193,6.464252e-01,-3.836012e-04,-2.952596e-04,7.024904e-01
194,6.460520e-01,-3.835559e-04,-2.952652e-04,7.047350e-01
195,6.454451e-01,-3.834783e-04,-2.952706e-04,7.069751e-01
196,6.446504e-01,-3.833748e-04,-2.952757e-04,7.092103e-01
197,6.437381e-01,-3.832549e-04,-2.952804e-04,7.114398e-01
198,6.427922e-01,-3.831302e-04,-2.952851e-04,7.136629e-01
199,6.418973e-01,-3.830124e-04,-2.952896e-04,7.158789e-01
200,6.411285e-01,-3.829117e-04,-2.952939e-04,7.180871e-01
201,6.405443e-01,-3.828363e-04,-2.952984e-04,7.202867e-01
202,6.401854e-01,-3.827919e-04,-2.953030e-04,7.224771e-01
203,6.400785e-01,-3.827819e-04,-2.953076e-04,7.246578e-01
204,6.402418e-01,-3.828089e-04,-2.953123e-04,7.268286e-01
205,6.406871e-01,-3.828745e-04,-2.953170e-04,7.289892e-01
206,6.414152e-01,-3.829788e-04,-2.953218e-04,7.311397e-01
207,6.424040e-01,-3.831190e-04,-2.953270e-04,7.332803e-01
208,6.435955e-01,-3.832874e-04,-2.953325e-04,7.354115e-01
209,6.448959e-01,-3.834709e-04,-2.953382e-04,7.375338e-01
210,6.461905e-01,-3.836536e-04,-2.953441e-04,7.396479e-01
211,6.473635e-01,-3.838197e-04,-2.953499e-04,7.417544e-01
212,6.483127e-01,-3.839551e-04,-2.953555e-04,7.438542e-01
213,6.489625e-01,-3.840492e-04,-2.953608e-04,7.459476e-01
214,6.492749e-01,-3.840967e-04,-2.953657e-04,7.480354e-01
215,6.492549e-01,-3.840984e-04,-2.953701e-04,7.501177e-01
216,6.489457e-01,-3.840603e-04,-2.953743e-04,7.521947e-01
217,6.484147e-01,-3.839918e-04,-2.953782e-04,7.542665e-01
218,6.477383e-01,-3.839034e-04,-2.953823e-04,7.563329e-01
219,6.469913e-01,-3.838053e-04,-2.953863e-04,7.583938e-01
220,6.462411e-01,-3.837069e-04,-2.953904e-04,7.604488e-01
221,6.455447e-01,-3.836158e-04,-2.953945e-04,7.624978e-01
222,6.449473e-01,-3.835384e-04,-2.953987e-04,7.645404e-01
223,6.444833e-01,-3.834792e-04,-2.954030e-04,7.665764e-01
224,6.441770e-01,-3.834415e-04,-2.954071e-04,7.686054e-01
225,6.440462e-01,-3.834278e-04,-2.954113e-04,7.706273e-01
226,6.441048e-01,-3.834399e-04,-2.954154e-04,7.726421e-01
227,6.443641e-01,-3.834792e-04,-2.954193e-04,7.746497e-01
228,6.448306e-01,-3.835468e-04,-2.954231e-04,7.766504e-01
229,6.454999e-01,-3.836419e-04,-2.954267e-04,7.786444e-01
230,6.463509e-01,-3.837618e-04,-2.954304e-04,7.806321e-01
231,6.473439e-01,-3.839009e-04,-2.954337e-04,7.826140e-01
232,6.484262e-01,-3.840520e-04,-2.954369e-04,7.845908e-01
233,6.495432e-01,-3.842082e-04,-2.954404e-04,7.865629e-01
234,6.506482e-01,-3.843626e-04,-2.954438e-04,7.885309e-01
235,6.517074e-01,-3.845108e-04,-2.954473e-04,7.904951e-01
236,6.526962e-01,-3.846497e-04,-2.954511e-04,7.924560e-01
237,6.535932e-01,-3.847763e-04,-2.954550e-04,7.944137e-01
238,6.543748e-01,-3.848872e-04,-2.954592e-04,7.963684e-01
239,6.550140e-01,-3.849789e-04,-2.954635e-04,7.983202e-01
240,6.554856e-01,-3.850476e-04,-2.954677e-04,8.002690e-01
241,6.557759e-01,-3.850912e-04,-2.954717e-04,8.022145e-01
242,6.558934e-01,-3.851111e-04,-2.954755e-04,8.041565e-01
243,6.558738e-01,-3.851119e-04,-2.954790e-04,8.060945e-01
244,6.557727e-01,-3.851015e-04,-2.954824e-04,8.080281e-01
245,6.556499e-01,-3.850883e-04,-2.954860e-04,8.099567e-01
246,6.555536e-01,-3.850790e-04,-2.954899e-04,8.118798e-01
247,6.555129e-01,-3.850776e-04,-2.954940e-04,8.137970e-01
248,6.555388e-01,-3.850855e-04,-2.954984e-04,8.157078e-01
249,6.556301e-01,-3.851023e-04,-2.955027e-04,8.176122e-01
250,6.557771e-01,-3.851269e-04,-2.955072e-04,8.195100e-01
251,6.559612e-01,-3.851566e-04,-2.955118e-04,8.214013e-01
252,6.561515e-01,-3.851875e-04,-2.955167e-04,8.232863e-01
253,6.563070e-01,-3.852137e-04,-2.955216e-04,8.251654e-01
254,6.563828e-01,-3.852288e-04,-2.955264e-04,8.270390e-01
255,6.563396e-01,-3.852277e-04,-2.955312e-04,8.289075e-01
256,6.561512e-01,-3.852067e-04,-2.955358e-04,8.307713e-01
257,6.558092e-01,-3.851646e-04,-2.955405e-04,8.326308e-01
258,6.553254e-01,-3.851033e-04,-2.955454e-04,8.344862e-01
259,6.547319e-01,-3.850272e-04,-2.955503e-04,8.363379e-01
260,6.540777e-01,-3.849428e-04,-2.955554e-04,8.381861e-01
261,6.534224e-01,-3.848584e-04,-2.955605e-04,8.400308e-01
262,6.528255e-01,-3.847822e-04,-2.955659e-04,8.418723e-01
263,6.523361e-01,-3.847208e-04,-2.955713e-04,8.437108e-01
264,6.519847e-01,-3.846782e-04,-2.955768e-04,8.455464e-01
265,6.517827e-01,-3.846561e-04,-2.955823e-04,8.473794e-01
266,6.517286e-01,-3.846542e-04,-2.955878e-04,8.492100e-01
267,6.518159e-01,-3.846718e-04,-2.955934e-04,8.510385e-01
268,6.520346e-01,-3.847073e-04,-2.955990e-04,8.528651e-01
269,6.523639e-01,-3.847579e-04,-2.956047e-04,8.546898e-01
270,6.527640e-01,-3.848183e-04,-2.956104e-04,8.565129e-01
271,6.531765e-01,-3.848805e-04,-2.956162e-04,8.583342e-01
272,6.535379e-01,-3.849355e-04,-2.956218e-04,8.601538e-01
273,6.537983e-01,-3.849766e-04,-2.956273e-04,8.619713e-01
274,6.539346e-01,-3.850003e-04,-2.956324e-04,8.637867e-01
275,6.539520e-01,-3.850077e-04,-2.956375e-04,8.655993e-01
276,6.538769e-01,-3.850026e-04,-2.956426e-04,8.674088e-01
277,6.537459e-01,-3.849901e-04,-2.956480e-04,8.692146e-01
278,6.535969e-01,-3.849753e-04,-2.956536e-04,8.710162e-01
279,6.534657e-01,-3.849630e-04,-2.956592e-04,8.728131e-01
280,6.533820e-01,-3.849571e-04,-2.956648e-04,8.746047e-01
281,6.533641e-01,-3.849602e-04,-2.956703e-04,8.763907e-01
282,6.534125e-01,-3.849724e-04,-2.956759e-04,8.781706e-01
283,6.535067e-01,-3.849913e-04,-2.956819e-04,8.799442e-01
284,6.536088e-01,-3.850113e-04,-2.956879e-04,8.817113e-01
285,6.536735e-01,-3.850263e-04,-2.956941e-04,8.834719e-01
286,6.536604e-01,-3.850308e-04,-2.957004e-04,8.852259e-01
287,6.535484e-01,-3.850214e-04,-2.957063e-04,8.869735e-01
288,6.533476e-01,-3.849993e-04,-2.957116e-04,8.887147e-01
289,6.531056e-01,-3.849714e-04,-2.957168e-04,8.904499e-01
290,6.528995e-01,-3.849484e-04,-2.957220e-04,8.921791e-01
291,6.528133e-01,-3.849420e-04,-2.957273e-04,8.939028e-01
292,6.529068e-01,-3.849603e-04,-2.957329e-04,8.956211e-01
293,6.531947e-01,-3.850055e-04,-2.957387e-04,8.973345e-01
294,6.536490e-01,-3.850736e-04,-2.957448e-04,8.990433e-01
295,6.542180e-01,-3.851575e-04,-2.957509e-04,9.007479e-01
296,6.548466e-01,-3.852493e-04,-2.957567e-04,9.024485e-01
297,6.554895e-01,-3.853427e-04,-2.957623e-04,9.041454e-01
298,6.561204e-01,-3.854340e-04,-2.957674e-04,9.058387e-01
299,6.567399e-01,-3.855233e-04,-2.957720e-04,9.075286e-01
300,6.573728e-01,-3.856140e-04,-2.957763e-04,9.092152e-01
301,6.580510e-01,-3.857111e-04,-2.957806e-04,9.108986e-01
302,6.587890e-01,-3.858165e-04,-2.957852e-04,9.125792e-01
303,6.595707e-01,-3.859279e-04,-2.957897e-04,9.142571e-01
304,6.603558e-01,-3.860398e-04,-2.957944e-04,9.159328e-01
305,6.610940e-01,-3.861453e-04,-2.957990e-04,9.176065e-01
306,6.617363e-01,-3.862376e-04,-2.958035e-04,9.192786e-01
307,6.622390e-01,-3.863107e-04,-2.958079e-04,9.209495e-01
308,6.625646e-01,-3.863595e-04,-2.958122e-04,9.226192e-01
309,6.626856e-01,-3.863803e-04,-2.958165e-04,9.242879e-01
310,6.625909e-01,-3.863715e-04,-2.958207e-04,9.259555e-01
311,6.622930e-01,-3.863347e-04,-2.958245e-04,9.276220e-01
312,6.618307e-01,-3.862752e-04,-2.958282e-04,9.292871e-01
313,6.612671e-01,-3.862016e-04,-2.958316e-04,9.309505e-01
314,6.606815e-01,-3.861248e-04,-2.958349e-04,9.326117e-01
315,6.601556e-01,-3.860563e-04,-2.958382e-04,9.342703e-01
316,6.597566e-01,-3.860053e-04,-2.958418e-04,9.359258e-01
317,6.595197e-01,-3.859767e-04,-2.958456e-04,9.375779e-01
318,6.594386e-01,-3.859700e-04,-2.958499e-04,9.392261e-01
319,6.594642e-01,-3.859786e-04,-2.958550e-04,9.408703e-01
320,6.595152e-01,-3.859902e-04,-2.958597e-04,9.425103e-01
321,6.595012e-01,-3.859927e-04,-2.958640e-04,9.441462e-01
322,6.593532e-01,-3.859764e-04,-2.958680e-04,9.457780e-01
323,6.590468e-01,-3.859382e-04,-2.958717e-04,9.474057e-01
324,6.586058e-01,-3.858813e-04,-2.958750e-04,9.490293e-01
325,6.580877e-01,-3.858138e-04,-2.958783e-04,9.506487e-01
326,6.575612e-01,-3.857451e-04,-2.958816e-04,9.522639e-01
327,6.570875e-01,-3.856837e-04,-2.958850e-04,9.538748e-01
328,6.567079e-01,-3.856353e-04,-2.958885e-04,9.554812e-01
329,6.564394e-01,-3.856021e-04,-2.958919e-04,9.570833e-01
330,6.562753e-01,-3.855832e-04,-2.958954e-04,9.586811e-01
331,6.561889e-01,-3.855750e-04,-2.958991e-04,9.602748e-01
332,6.561398e-01,-3.855721e-04,-2.959028e-04,9.618649e-01
333,6.560827e-01,-3.855677e-04,-2.959062e-04,9.634514e-01
334,6.559824e-01,-3.855571e-04,-2.959094e-04,9.650349e-01
335,6.558315e-01,-3.855393e-04,-2.959122e-04,9.666153e-01
336,6.556604e-01,-3.855181e-04,-2.959143e-04,9.681928e-01
337,6.555319e-01,-3.855027e-04,-2.959165e-04,9.697674e-01
338,6.555220e-01,-3.855035e-04,-2.959187e-04,9.713390e-01
339,6.556909e-01,-3.855289e-04,-2.959210e-04,9.729073e-01
340,6.560587e-01,-3.855820e-04,-2.959238e-04,9.744722e-01
341,6.565956e-01,-3.856585e-04,-2.959270e-04,9.760338e-01
342,6.572339e-01,-3.857488e-04,-2.959301e-04,9.775921e-01
343,6.578979e-01,-3.858423e-04,-2.959327e-04,9.791471e-01
344,6.585344e-01,-3.859315e-04,-2.959350e-04,9.806989e-01
