TimeStep,Temp,PotEnergy,TotEnergy,MeanSqDisp
0,1.000339e-01,-8.395765e-03,-8.095664e-03,2.738613e-03
1,1.001356e-01,-8.396043e-03,-8.095636e-03,5.478154e-03
2,1.003052e-01,-8.396505e-03,-8.095590e-03,8.219551e-03
3,1.005426e-01,-8.397152e-03,-8.095525e-03,1.096373e-02
4,1.008478e-01,-8.397984e-03,-8.095441e-03,1.371161e-02
5,1.012207e-01,-8.399001e-03,-8.095339e-03,1.646410e-02
6,1.016612e-01,-8.400201e-03,-8.095218e-03,1.922213e-02
7,1.021692e-01,-8.401585e-03,-8.095077e-03,2.198657e-02
8,1.027443e-01,-8.403150e-03,-8.094918e-03,2.475832e-02
9,1.033861e-01,-8.404897e-03,-8.094738e-03,2.753826e-02
10,1.040943e-01,-8.406822e-03,-8.094540e-03,3.032723e-02
11,1.048679e-01,-8.408925e-03,-8.094321e-03,3.312608e-02
12,1.057063e-01,-8.411201e-03,-8.094082e-03,3.593562e-02
13,1.066081e-01,-8.413647e-03,-8.093823e-03,3.875663e-02
14,1.075719e-01,-8.416258e-03,-8.093542e-03,4.158988e-02
15,1.085961e-01,-8.419029e-03,-8.093241e-03,4.443609e-02
16,1.096783e-01,-8.421953e-03,-8.092918e-03,4.729593e-02
17,1.108159e-01,-8.425022e-03,-8.092574e-03,5.017006e-02
18,1.120057e-01,-8.428224e-03,-8.092207e-03,5.305905e-02
19,1.132439e-01,-8.431550e-03,-8.091818e-03,5.596344e-02
20,1.145260e-01,-8.434984e-03,-8.091406e-03,5.888368e-02
21,1.158469e-01,-8.438512e-03,-8.090971e-03,6.182017e-02
22,1.172005e-01,-8.442117e-03,-8.090516e-03,6.477320e-02
23,1.185799e-01,-8.445783e-03,-8.090044e-03,6.774299e-02
24,1.199774e-01,-8.449488e-03,-8.089556e-03,7.072965e-02
25,1.213844e-01,-8.453202e-03,-8.089049e-03,7.373316e-02
26,1.227913e-01,-8.456901e-03,-8.088527e-03,7.675341e-02
27,1.241876e-01,-8.460565e-03,-8.088002e-03,7.979011e-02
28,1.255624e-01,-8.464171e-03,-8.087484e-03,8.284284e-02
29,1.269041e-01,-8.467684e-03,-8.086971e-03,8.591104e-02
30,1.282007e-01,-8.471055e-03,-8.086453e-03,8.899394e-02
31,1.294405e-01,-8.474257e-03,-8.085936e-03,9.209062e-02
32,1.306120e-01,-8.477256e-03,-8.085420e-03,9.519997e-02
33,1.317045e-01,-8.480027e-03,-8.084914e-03,9.832069e-02
34,1.327087e-01,-8.482551e-03,-8.084425e-03,1.014513e-01
35,1.336167e-01,-8.484796e-03,-8.083946e-03,1.045901e-01
36,1.344226e-01,-8.486738e-03,-8.083470e-03,1.077354e-01
37,1.351225e-01,-8.488365e-03,-8.082997e-03,1.108850e-01
38,1.357150e-01,-8.489689e-03,-8.082544e-03,1.140369e-01
39,1.362005e-01,-8.490718e-03,-8.082116e-03,1.171888e-01
40,1.365817e-01,-8.491451e-03,-8.081706e-03,1.203383e-01
41,1.368635e-01,-8.491903e-03,-8.081313e-03,1.234830e-01
42,1.370526e-01,-8.492089e-03,-8.080931e-03,1.266205e-01
43,1.371581e-01,-8.492039e-03,-8.080565e-03,1.297482e-01
44,1.371913e-01,-8.491790e-03,-8.080216e-03,1.328636e-01
45,1.371662e-01,-8.491387e-03,-8.079888e-03,1.359641e-01
46,1.370993e-01,-8.490897e-03,-8.079599e-03,1.390475e-01
47,1.370097e-01,-8.490369e-03,-8.079340e-03,1.421113e-01
48,1.369192e-01,-8.489862e-03,-8.079104e-03,1.451532e-01
49,1.368513e-01,-8.489438e-03,-8.078884e-03,1.481712e-01
50,1.368306e-01,-8.489178e-03,-8.078686e-03,1.511634e-01
51,1.368818e-01,-8.489162e-03,-8.078517e-03,1.541280e-01
52,1.370286e-01,-8.489459e-03,-8.078373e-03,1.570635e-01
53,1.372926e-01,-8.490129e-03,-8.078251e-03,1.599687e-01
54,1.376920e-01,-8.491216e-03,-8.078140e-03,1.628427e-01
55,1.382411e-01,-8.492771e-03,-8.078048e-03,1.656848e-01
56,1.389492e-01,-8.494833e-03,-8.077985e-03,1.684945e-01
57,1.398208e-01,-8.497407e-03,-8.077944e-03,1.712719e-01
58,1.408549e-01,-8.500483e-03,-8.077919e-03,1.740170e-01
59,1.420459e-01,-8.504049e-03,-8.077912e-03,1.767302e-01
60,1.433837e-01,-8.508072e-03,-8.077921e-03,1.794122e-01
61,1.448542e-01,-8.512508e-03,-8.077946e-03,1.820638e-01
62,1.464406e-01,-8.517314e-03,-8.077992e-03,1.846859e-01
63,1.481238e-01,-8.522425e-03,-8.078053e-03,1.872796e-01
64,1.498831e-01,-8.527780e-03,-8.078130e-03,1.898461e-01
65,1.516977e-01,-8.533322e-03,-8.078229e-03,1.923865e-01
66,1.535466e-01,-8.538970e-03,-8.078330e-03,1.949022e-01
67,1.554099e-01,-8.544669e-03,-8.078439e-03,1.973944e-01
68,1.572688e-01,-8.550376e-03,-8.078569e-03,1.998641e-01
69,1.591065e-01,-8.556036e-03,-8.078717e-03,2.023127e-01
70,1.609083e-01,-8.561600e-03,-8.078875e-03,2.047410e-01
71,1.626622e-01,-8.567039e-03,-8.079053e-03,2.071500e-01
72,1.643584e-01,-8.572309e-03,-8.079234e-03,2.095407e-01
73,1.659903e-01,-8.577409e-03,-8.079438e-03,2.119137e-01
74,1.675537e-01,-8.582324e-03,-8.079662e-03,2.142698e-01
75,1.690471e-01,-8.587039e-03,-8.079898e-03,2.166094e-01
76,1.704717e-01,-8.591570e-03,-8.080155e-03,2.189330e-01
77,1.718310e-01,-8.595917e-03,-8.080424e-03,2.212410e-01
78,1.731311e-01,-8.600095e-03,-8.080702e-03,2.235336e-01
79,1.743797e-01,-8.604132e-03,-8.080993e-03,2.258111e-01
80,1.755868e-01,-8.608069e-03,-8.081309e-03,2.280735e-01
81,1.767633e-01,-8.611948e-03,-8.081658e-03,2.303210e-01
82,1.779212e-01,-8.615788e-03,-8.082024e-03,2.325536e-01
83,1.790726e-01,-8.619617e-03,-8.082399e-03,2.347715e-01
84,1.802294e-01,-8.623467e-03,-8.082779e-03,2.369747e-01
85,1.814022e-01,-8.627365e-03,-8.083158e-03,2.391632e-01
86,1.826001e-01,-8.631347e-03,-8.083546e-03,2.413372e-01
87,1.838301e-01,-8.635443e-03,-8.083953e-03,2.434969e-01
88,1.850964e-01,-8.639654e-03,-8.084365e-03,2.456425e-01
89,1.864007e-01,-8.643979e-03,-8.084777e-03,2.477742e-01
90,1.877416e-01,-8.648418e-03,-8.085193e-03,2.498923e-01
91,1.891148e-01,-8.652963e-03,-8.085619e-03,2.519971e-01
92,1.905130e-01,-8.657600e-03,-8.086061e-03,2.540892e-01
93,1.919270e-01,-8.662294e-03,-8.086513e-03,2.561688e-01
94,1.933462e-01,-8.667007e-03,-8.086968e-03,2.582364e-01
95,1.947595e-01,-8.671733e-03,-8.087454e-03,2.602925e-01
96,1.961569e-01,-8.676419e-03,-8.087948e-03,2.623376e-01
97,1.975299e-01,-8.681046e-03,-8.088456e-03,2.643719e-01
98,1.988721e-01,-8.685581e-03,-8.088965e-03,2.663960e-01
99,2.001800e-01,-8.690016e-03,-8.089476e-03,2.684102e-01
100,1.010627e-01,-8.693577e-03,-8.390389e-03,2.698155e-01
101,1.024258e-01,-8.698045e-03,-8.390767e-03,2.711915e-01
102,1.040819e-01,-8.703400e-03,-8.391154e-03,2.725393e-01
103,1.060148e-01,-8.709589e-03,-8.391544e-03,2.738601e-01
104,1.082005e-01,-8.716533e-03,-8.391932e-03,2.751556e-01
105,1.106083e-01,-8.724147e-03,-8.392322e-03,2.764276e-01
106,1.132028e-01,-8.732323e-03,-8.392715e-03,2.776783e-01
107,1.159454e-01,-8.740952e-03,-8.393116e-03,2.789097e-01
108,1.187959e-01,-8.749908e-03,-8.393520e-03,2.801244e-01
109,1.217148e-01,-8.759066e-03,-8.393922e-03,2.813246e-01
110,1.246645e-01,-8.768315e-03,-8.394322e-03,2.825129e-01
111,1.276108e-01,-8.777546e-03,-8.394713e-03,2.836916e-01
112,1.305240e-01,-8.786670e-03,-8.395098e-03,2.848631e-01
113,1.333794e-01,-8.795623e-03,-8.395485e-03,2.860298e-01
114,1.361575e-01,-8.804350e-03,-8.395877e-03,2.871939e-01
115,1.388435e-01,-8.812809e-03,-8.396278e-03,2.883574e-01
116,1.414271e-01,-8.820961e-03,-8.396680e-03,2.895223e-01
117,1.439014e-01,-8.828785e-03,-8.397081e-03,2.906905e-01
118,1.462620e-01,-8.836268e-03,-8.397482e-03,2.918636e-01
119,1.485068e-01,-8.843403e-03,-8.397883e-03,2.930432e-01
120,1.506350e-01,-8.850184e-03,-8.398279e-03,2.942306e-01
121,1.526470e-01,-8.856622e-03,-8.398681e-03,2.954270e-01
122,1.545439e-01,-8.862718e-03,-8.399087e-03,2.966335e-01
123,1.563278e-01,-8.868473e-03,-8.399490e-03,2.978511e-01
124,1.580015e-01,-8.873901e-03,-8.399897e-03,2.990805e-01
125,1.595684e-01,-8.879005e-03,-8.400300e-03,3.003225e-01
126,1.610326e-01,-8.883804e-03,-8.400706e-03,3.015774e-01
127,1.623983e-01,-8.888305e-03,-8.401110e-03,3.028458e-01
128,1.636697e-01,-8.892531e-03,-8.401522e-03,3.041279e-01
129,1.648509e-01,-8.896491e-03,-8.401938e-03,3.054239e-01
130,1.659454e-01,-8.900195e-03,-8.402359e-03,3.067338e-01
131,1.669565e-01,-8.903654e-03,-8.402785e-03,3.080578e-01
132,1.678870e-01,-8.906876e-03,-8.403215e-03,3.093955e-01
133,1.687404e-01,-8.909862e-03,-8.403641e-03,3.107468e-01
134,1.695212e-01,-8.912645e-03,-8.404082e-03,3.121115e-01
135,1.702361e-01,-8.915241e-03,-8.404533e-03,3.134891e-01
136,1.708942e-01,-8.917676e-03,-8.404993e-03,3.148791e-01
137,1.715079e-01,-8.919971e-03,-8.405447e-03,3.162812e-01
138,1.720926e-01,-8.922175e-03,-8.405898e-03,3.176946e-01
139,1.726663e-01,-8.924351e-03,-8.406352e-03,3.191187e-01
140,1.732488e-01,-8.926548e-03,-8.406802e-03,3.205530e-01
141,1.738611e-01,-8.928828e-03,-8.407245e-03,3.219967e-01
142,1.745238e-01,-8.931262e-03,-8.407690e-03,3.234493e-01
143,1.752563e-01,-8.933918e-03,-8.408149e-03,3.249101e-01
144,1.760758e-01,-8.936839e-03,-8.408612e-03,3.263786e-01
145,1.769952e-01,-8.940070e-03,-8.409085e-03,3.278544e-01
146,1.780222e-01,-8.943632e-03,-8.409565e-03,3.293372e-01
147,1.791581e-01,-8.947520e-03,-8.410045e-03,3.308266e-01
148,1.803970e-01,-8.951721e-03,-8.410530e-03,3.323225e-01
149,1.817257e-01,-8.956200e-03,-8.411023e-03,3.338247e-01
150,1.831244e-01,-8.960901e-03,-8.411528e-03,3.353334e-01
151,1.845684e-01,-8.965753e-03,-8.412048e-03,3.368484e-01
152,1.860297e-01,-8.970669e-03,-8.412579e-03,3.383698e-01
153,1.874795e-01,-8.975549e-03,-8.413111e-03,3.398977e-01
154,1.888902e-01,-8.980313e-03,-8.413643e-03,3.414320e-01
155,1.902379e-01,-8.984891e-03,-8.414177e-03,3.429728e-01
156,1.915032e-01,-8.989220e-03,-8.414711e-03,3.445197e-01
157,1.926732e-01,-8.993259e-03,-8.415239e-03,3.460725e-01
158,1.937412e-01,-8.996982e-03,-8.415758e-03,3.476308e-01
159,1.947070e-01,-9.000392e-03,-8.416271e-03,3.491941e-01
160,1.955762e-01,-9.003521e-03,-8.416792e-03,3.507618e-01
161,1.963593e-01,-9.006401e-03,-8.417323e-03,3.523331e-01
162,1.970701e-01,-9.009078e-03,-8.417868e-03,3.539073e-01
163,1.977244e-01,-9.011602e-03,-8.418428e-03,3.554833e-01
164,1.983388e-01,-9.014022e-03,-8.419006e-03,3.570605e-01
165,1.989302e-01,-9.016389e-03,-8.419598e-03,3.586378e-01
166,1.995159e-01,-9.018738e-03,-8.420190e-03,3.602144e-01
167,2.001144e-01,-9.021127e-03,-8.420783e-03,3.617894e-01
168,2.007475e-01,-9.023625e-03,-8.421383e-03,3.633622e-01
169,2.014407e-01,-9.026299e-03,-8.421977e-03,3.649319e-01
170,2.022233e-01,-9.029235e-03,-8.422565e-03,3.664980e-01
171,2.031266e-01,-9.032529e-03,-8.423149e-03,3.680601e-01
172,2.041805e-01,-9.036273e-03,-8.423731e-03,3.696178e-01
173,2.054085e-01,-9.040551e-03,-8.424325e-03,3.711711e-01
174,2.068233e-01,-9.045402e-03,-8.424932e-03,3.727199e-01
175,2.084232e-01,-9.050812e-03,-8.425543e-03,3.742648e-01
176,2.101904e-01,-9.056740e-03,-8.426169e-03,3.758060e-01
177,2.120914e-01,-9.063076e-03,-8.426802e-03,3.773443e-01
178,2.140797e-01,-9.069682e-03,-8.427443e-03,3.788803e-01
179,2.160991e-01,-9.076379e-03,-8.428082e-03,3.804149e-01
180,2.180892e-01,-9.082993e-03,-8.428726e-03,3.819488e-01
181,2.199897e-01,-9.089334e-03,-8.429364e-03,3.834827e-01
182,2.217459e-01,-9.095244e-03,-8.430007e-03,3.850172e-01
183,2.233117e-01,-9.100587e-03,-8.430652e-03,3.865527e-01
184,2.246528e-01,-9.105253e-03,-8.431295e-03,3.880895e-01
185,2.257486e-01,-9.109187e-03,-8.431941e-03,3.896277e-01
186,2.265917e-01,-9.112365e-03,-8.432590e-03,3.911669e-01
187,2.271879e-01,-9.114798e-03,-8.433235e-03,3.927071e-01
188,2.275538e-01,-9.116555e-03,-8.433893e-03,3.942475e-01
189,2.277156e-01,-9.117704e-03,-8.434557e-03,3.957876e-01
190,2.277063e-01,-9.118341e-03,-8.435222e-03,3.973267e-01
191,2.275647e-01,-9.118581e-03,-8.435887e-03,3.988638e-01
192,2.273339e-01,-9.118563e-03,-8.436562e-03,4.003982e-01
193,2.270613e-01,-9.118432e-03,-8.437248e-03,4.019289e-01
194,2.267984e-01,-9.118336e-03,-8.437940e-03,4.034550e-01
195,2.265997e-01,-9.118425e-03,-8.438626e-03,4.049759e-01
196,2.265214e-01,-9.118873e-03,-8.439309e-03,4.064907e-01
197,2.266188e-01,-9.119852e-03,-8.439996e-03,4.079988e-01
198,2.269420e-01,-9.121505e-03,-8.440679e-03,4.094996e-01
199,2.275331e-01,-9.123962e-03,-8.441363e-03,4.109929e-01
200,1.009155e-01,-9.127174e-03,-8.824427e-03,4.119663e-01
201,1.026796e-01,-9.132945e-03,-8.824906e-03,4.129121e-01
202,1.052558e-01,-9.141162e-03,-8.825395e-03,4.138312e-01
203,1.085722e-01,-9.151606e-03,-8.825889e-03,4.147252e-01
204,1.125286e-01,-9.163974e-03,-8.826388e-03,4.155962e-01
205,1.170046e-01,-9.177910e-03,-8.826896e-03,4.164467e-01
206,1.218690e-01,-9.193014e-03,-8.827407e-03,4.172796e-01
207,1.269878e-01,-9.208878e-03,-8.827914e-03,4.180981e-01
208,1.322313e-01,-9.225111e-03,-8.828418e-03,4.189055e-01
209,1.374797e-01,-9.241359e-03,-8.828920e-03,4.197052e-01
210,1.426268e-01,-9.257299e-03,-8.829419e-03,4.205006e-01
211,1.475817e-01,-9.272664e-03,-8.829919e-03,4.212950e-01
212,1.522695e-01,-9.287232e-03,-8.830424e-03,4.220916e-01
213,1.566308e-01,-9.300823e-03,-8.830931e-03,4.228933e-01
214,1.606209e-01,-9.313298e-03,-8.831435e-03,4.237028e-01
215,1.642085e-01,-9.324566e-03,-8.831940e-03,4.245225e-01
216,1.673744e-01,-9.334568e-03,-8.832445e-03,4.253544e-01
217,1.701105e-01,-9.343284e-03,-8.832952e-03,4.262003e-01
218,1.724194e-01,-9.350723e-03,-8.833465e-03,4.270616e-01
219,1.743136e-01,-9.356922e-03,-8.833981e-03,4.279393e-01
220,1.758150e-01,-9.361947e-03,-8.834502e-03,4.288343e-01
221,1.769547e-01,-9.365890e-03,-8.835026e-03,4.297469e-01
222,1.777722e-01,-9.368883e-03,-8.835567e-03,4.306773e-01
223,1.783142e-01,-9.371058e-03,-8.836116e-03,4.316255e-01
224,1.786332e-01,-9.372575e-03,-8.836675e-03,4.325911e-01
225,1.787857e-01,-9.373586e-03,-8.837229e-03,4.335737e-01
226,1.788295e-01,-9.374276e-03,-8.837788e-03,4.345727e-01
227,1.788219e-01,-9.374826e-03,-8.838361e-03,4.355874e-01
228,1.788176e-01,-9.375391e-03,-8.838938e-03,4.366170e-01
229,1.788664e-01,-9.376119e-03,-8.839520e-03,4.376609e-01
230,1.790125e-01,-9.377149e-03,-8.840112e-03,4.387183e-01
231,1.792939e-01,-9.378593e-03,-8.840712e-03,4.397886e-01
232,1.797412e-01,-9.380540e-03,-8.841317e-03,4.408713e-01
233,1.803779e-01,-9.383053e-03,-8.841919e-03,4.419660e-01
234,1.812196e-01,-9.386187e-03,-8.842528e-03,4.430723e-01
235,1.822740e-01,-9.389958e-03,-8.843136e-03,4.441902e-01
236,1.835403e-01,-9.394367e-03,-8.843746e-03,4.453195e-01
237,1.850089e-01,-9.399386e-03,-8.844360e-03,4.464603e-01
238,1.866619e-01,-9.404955e-03,-8.844970e-03,4.476130e-01
239,1.884729e-01,-9.411006e-03,-8.845587e-03,4.487778e-01
240,1.904081e-01,-9.417435e-03,-8.846211e-03,4.499551e-01
241,1.924273e-01,-9.424126e-03,-8.846844e-03,4.511455e-01
242,1.944855e-01,-9.430939e-03,-8.847482e-03,4.523493e-01
243,1.965351e-01,-9.437732e-03,-8.848126e-03,4.535671e-01
244,1.985277e-01,-9.444362e-03,-8.848779e-03,4.547995e-01
245,2.004165e-01,-9.450687e-03,-8.849437e-03,4.560467e-01
246,2.021590e-01,-9.456576e-03,-8.850099e-03,4.573092e-01
247,2.037188e-01,-9.461915e-03,-8.850759e-03,4.585871e-01
248,2.050677e-01,-9.466622e-03,-8.851419e-03,4.598806e-01
249,2.061878e-01,-9.470655e-03,-8.852092e-03,4.611894e-01
250,2.070726e-01,-9.473987e-03,-8.852769e-03,4.625134e-01
251,2.077279e-01,-9.476626e-03,-8.853442e-03,4.638520e-01
252,2.081719e-01,-9.478640e-03,-8.854125e-03,4.652046e-01
253,2.084346e-01,-9.480124e-03,-8.854820e-03,4.665704e-01
254,2.085562e-01,-9.481191e-03,-8.855522e-03,4.679483e-01
255,2.085841e-01,-9.481988e-03,-8.856236e-03,4.693370e-01
256,2.085693e-01,-9.482667e-03,-8.856959e-03,4.707354e-01
257,2.085628e-01,-9.483387e-03,-8.857699e-03,4.721420e-01
258,2.086107e-01,-9.484280e-03,-8.858448e-03,4.735553e-01
259,2.087520e-01,-9.485461e-03,-8.859205e-03,4.749738e-01
260,2.090154e-01,-9.487021e-03,-8.859975e-03,4.763961e-01
261,2.094196e-01,-9.489008e-03,-8.860750e-03,4.778206e-01
262,2.099731e-01,-9.491440e-03,-8.861521e-03,4.792459e-01
263,2.106759e-01,-9.494324e-03,-8.862296e-03,4.806706e-01
264,2.115210e-01,-9.497644e-03,-8.863081e-03,4.820937e-01
265,2.124952e-01,-9.501361e-03,-8.863875e-03,4.835138e-01
266,2.135805e-01,-9.505413e-03,-8.864671e-03,4.849302e-01
267,2.147535e-01,-9.509728e-03,-8.865468e-03,4.863419e-01
268,2.159863e-01,-9.514226e-03,-8.866267e-03,4.877483e-01
269,2.172473e-01,-9.518808e-03,-8.867066e-03,4.891490e-01
270,2.185029e-01,-9.523380e-03,-8.867871e-03,4.905435e-01
271,2.197209e-01,-9.527841e-03,-8.868678e-03,4.919318e-01
272,2.208745e-01,-9.532108e-03,-8.869484e-03,4.933136e-01
273,2.219456e-01,-9.536121e-03,-8.870284e-03,4.946890e-01
274,2.229278e-01,-9.539863e-03,-8.871080e-03,4.960579e-01
275,2.238276e-01,-9.543358e-03,-8.871875e-03,4.974203e-01
276,2.246633e-01,-9.546669e-03,-8.872679e-03,4.987764e-01
277,2.254633e-01,-9.549873e-03,-8.873483e-03,5.001260e-01
278,2.262619e-01,-9.553074e-03,-8.874289e-03,5.014694e-01
279,2.270948e-01,-9.556384e-03,-8.875099e-03,5.028065e-01
280,2.279949e-01,-9.559891e-03,-8.875907e-03,5.041376e-01
281,2.289882e-01,-9.563670e-03,-8.876705e-03,5.054631e-01
282,2.300916e-01,-9.567773e-03,-8.877498e-03,5.067831e-01
283,2.313122e-01,-9.572212e-03,-8.878275e-03,5.080981e-01
284,2.326474e-01,-9.576986e-03,-8.879044e-03,5.094088e-01
285,2.340866e-01,-9.582066e-03,-8.879806e-03,5.107157e-01
286,2.356131e-01,-9.587396e-03,-8.880556e-03,5.120195e-01
287,2.372053e-01,-9.592920e-03,-8.881304e-03,5.133210e-01
288,2.388390e-01,-9.598563e-03,-8.882047e-03,5.146208e-01
289,2.404872e-01,-9.604255e-03,-8.882793e-03,5.159197e-01
290,2.421209e-01,-9.609898e-03,-8.883535e-03,5.172183e-01
291,2.437082e-01,-9.615392e-03,-8.884267e-03,5.185173e-01
292,2.452138e-01,-9.620632e-03,-8.884991e-03,5.198173e-01
293,2.465999e-01,-9.625512e-03,-8.885713e-03,5.211187e-01
294,2.478292e-01,-9.629927e-03,-8.886440e-03,5.224219e-01
295,2.488708e-01,-9.633777e-03,-8.887164e-03,5.237271e-01
296,2.497068e-01,-9.636998e-03,-8.887877e-03,5.250345e-01
297,2.503382e-01,-9.639594e-03,-8.888579e-03,5.263440e-01
298,2.507884e-01,-9.641639e-03,-8.889274e-03,5.276556e-01
299,2.511035e-01,-9.643272e-03,-8.889961e-03,5.289689e-01
300,1.005816e-01,-9.645449e-03,-9.343705e-03,5.297893e-01
301,1.020017e-01,-9.650151e-03,-9.344146e-03,5.305919e-01
302,1.042497e-01,-9.657340e-03,-9.344591e-03,5.313773e-01
303,1.072736e-01,-9.666862e-03,-9.345042e-03,5.321466e-01
304,1.109828e-01,-9.678448e-03,-9.345499e-03,5.329012e-01
305,1.152560e-01,-9.691726e-03,-9.345958e-03,5.336429e-01
306,1.199506e-01,-9.706274e-03,-9.346422e-03,5.343739e-01
307,1.249144e-01,-9.721626e-03,-9.346882e-03,5.350962e-01
308,1.299963e-01,-9.737329e-03,-9.347340e-03,5.358124e-01
309,1.350552e-01,-9.752960e-03,-9.347794e-03,5.365247e-01
310,1.399669e-01,-9.768146e-03,-9.348245e-03,5.372354e-01
311,1.446281e-01,-9.782578e-03,-9.348694e-03,5.379466e-01
312,1.489592e-01,-9.796016e-03,-9.349138e-03,5.386602e-01
313,1.529038e-01,-9.808288e-03,-9.349577e-03,5.393780e-01
314,1.564289e-01,-9.819300e-03,-9.350014e-03,5.401014e-01
315,1.595219e-01,-9.829021e-03,-9.350455e-03,5.408315e-01
316,1.621890e-01,-9.837459e-03,-9.350892e-03,5.415692e-01
317,1.644514e-01,-9.844678e-03,-9.351324e-03,5.423151e-01
318,1.663427e-01,-9.850795e-03,-9.351767e-03,5.430697e-01
319,1.679052e-01,-9.855928e-03,-9.352212e-03,5.438331e-01
320,1.691869e-01,-9.860219e-03,-9.352659e-03,5.446053e-01
321,1.702381e-01,-9.863820e-03,-9.353105e-03,5.453862e-01
322,1.711093e-01,-9.866878e-03,-9.353551e-03,5.461754e-01
323,1.718483e-01,-9.869533e-03,-9.353988e-03,5.469727e-01
324,1.724992e-01,-9.871925e-03,-9.354427e-03,5.477777e-01
325,1.731003e-01,-9.874169e-03,-9.354868e-03,5.485901e-01
326,1.736838e-01,-9.876356e-03,-9.355305e-03,5.494096e-01
327,1.742744e-01,-9.878571e-03,-9.355748e-03,5.502359e-01
328,1.748898e-01,-9.880864e-03,-9.356195e-03,5.510690e-01
329,1.755399e-01,-9.883262e-03,-9.356642e-03,5.519087e-01
330,1.762278e-01,-9.885773e-03,-9.357089e-03,5.527554e-01
331,1.769502e-01,-9.888383e-03,-9.357533e-03,5.536091e-01
332,1.776991e-01,-9.891068e-03,-9.357971e-03,5.544702e-01
333,1.784634e-01,-9.893796e-03,-9.358406e-03,5.553392e-01
334,1.792311e-01,-9.896545e-03,-9.358852e-03,5.562167e-01
335,1.799909e-01,-9.899278e-03,-9.359306e-03,5.571031e-01
336,1.807338e-01,-9.901965e-03,-9.359763e-03,5.579991e-01
337,1.814533e-01,-9.904588e-03,-9.360229e-03,5.589053e-01
338,1.821454e-01,-9.907143e-03,-9.360707e-03,5.598221e-01
339,1.828078e-01,-9.909614e-03,-9.361191e-03,5.607502e-01
340,1.834385e-01,-9.911992e-03,-9.361676e-03,5.616900e-01
341,1.840349e-01,-9.914270e-03,-9.362165e-03,5.626419e-01
342,1.845928e-01,-9.916437e-03,-9.362658e-03,5.636061e-01
343,1.851065e-01,-9.918485e-03,-9.363165e-03,5.645830e-01
344,1.855693e-01,-9.920388e-03,-9.363680e-03,5.655726e-01
