TimeStep,Temp,PotEnergy,TotEnergy,MeanSqDisp
0,3.499866e-01,-1.075331e-02,-9.703350e-03,5.123475e-03
1,3.499432e-01,-1.075308e-02,-9.703249e-03,1.024675e-02
2,3.498607e-01,-1.075271e-02,-9.703125e-03,1.536959e-02
3,3.497244e-01,-1.075230e-02,-9.703125e-03,2.049166e-02
4,3.495140e-01,-1.075185e-02,-9.703311e-03,2.561250e-02
5,3.492027e-01,-1.075127e-02,-9.703660e-03,3.073149e-02
6,3.487566e-01,-1.075040e-02,-9.704131e-03,3.584775e-02
7,3.481352e-01,-1.074905e-02,-9.704643e-03,4.096017e-02
8,3.472903e-01,-1.074705e-02,-9.705179e-03,4.606727e-02
9,3.461665e-01,-1.074422e-02,-9.705720e-03,5.116720e-02
10,3.447016e-01,-1.074034e-02,-9.706239e-03,5.625765e-02
11,3.428268e-01,-1.073521e-02,-9.706726e-03,6.133579e-02
12,3.404680e-01,-1.072858e-02,-9.707171e-03,6.639821e-02
13,3.375484e-01,-1.072022e-02,-9.707577e-03,7.144085e-02
14,3.339917e-01,-1.070991e-02,-9.707932e-03,7.645897e-02
15,3.297269e-01,-1.069741e-02,-9.708231e-03,8.144705e-02
16,3.246949e-01,-1.068256e-02,-9.708473e-03,8.639883e-02
17,3.188563e-01,-1.066522e-02,-9.708651e-03,9.130727e-02
18,3.121994e-01,-1.064536e-02,-9.708763e-03,9.616461e-02
19,3.047477e-01,-1.062305e-02,-9.708812e-03,1.009625e-01
20,2.965638e-01,-1.059849e-02,-9.708798e-03,1.056920e-01
21,2.877497e-01,-1.057197e-02,-9.708724e-03,1.103441e-01
22,2.784429e-01,-1.054392e-02,-9.708593e-03,1.149096e-01
23,2.688097e-01,-1.051485e-02,-9.708422e-03,1.193795e-01
24,2.590385e-01,-1.048534e-02,-9.708220e-03,1.237453e-01
25,2.493339e-01,-1.045598e-02,-9.707983e-03,1.279991e-01
26,2.399107e-01,-1.042744e-02,-9.707713e-03,1.321341e-01
27,2.309861e-01,-1.040038e-02,-9.707419e-03,1.361442e-01
28,2.227686e-01,-1.037543e-02,-9.707120e-03,1.400249e-01
29,2.154444e-01,-1.035316e-02,-9.706826e-03,1.437731e-01
30,2.091636e-01,-1.033404e-02,-9.706547e-03,1.473870e-01
31,2.040292e-01,-1.031837e-02,-9.706280e-03,1.508666e-01
32,2.000903e-01,-1.030630e-02,-9.706024e-03,1.542133e-01
33,1.973419e-01,-1.029781e-02,-9.705789e-03,1.574300e-01
34,1.957286e-01,-1.029277e-02,-9.705581e-03,1.605210e-01
35,1.951536e-01,-1.029085e-02,-9.705391e-03,1.634915e-01
36,1.954889e-01,-1.029167e-02,-9.705202e-03,1.663476e-01
37,1.965872e-01,-1.029478e-02,-9.705021e-03,1.690962e-01
38,1.982924e-01,-1.029974e-02,-9.704866e-03,1.717444e-01
39,2.004497e-01,-1.030607e-02,-9.704725e-03,1.742996e-01
40,2.029127e-01,-1.031334e-02,-9.704601e-03,1.767689e-01
41,2.055497e-01,-1.032113e-02,-9.704477e-03,1.791596e-01
42,2.082468e-01,-1.032910e-02,-9.704359e-03,1.814784e-01
43,2.109102e-01,-1.033697e-02,-9.704244e-03,1.837314e-01
44,2.134663e-01,-1.034455e-02,-9.704148e-03,1.859247e-01
45,2.158612e-01,-1.035165e-02,-9.704066e-03,1.880633e-01
46,2.180594e-01,-1.035817e-02,-9.703992e-03,1.901520e-01
47,2.200410e-01,-1.036406e-02,-9.703935e-03,1.921949e-01
48,2.217999e-01,-1.036928e-02,-9.703884e-03,1.941957e-01
49,2.233393e-01,-1.037386e-02,-9.703838e-03,1.961574e-01
50,2.246690e-01,-1.037780e-02,-9.703796e-03,1.980829e-01
51,2.258009e-01,-1.038117e-02,-9.703764e-03,1.999744e-01
52,2.267453e-01,-1.038397e-02,-9.703732e-03,2.018339e-01
53,2.275087e-01,-1.038623e-02,-9.703704e-03,2.036631e-01
54,2.280932e-01,-1.038797e-02,-9.703686e-03,2.054634e-01
55,2.284971e-01,-1.038917e-02,-9.703677e-03,2.072361e-01
56,2.287176e-01,-1.038983e-02,-9.703675e-03,2.089820e-01
57,2.287542e-01,-1.038995e-02,-9.703687e-03,2.107018e-01
58,2.286108e-01,-1.038952e-02,-9.703685e-03,2.123961e-01
59,2.282983e-01,-1.038858e-02,-9.703686e-03,2.140650e-01
60,2.278347e-01,-1.038719e-02,-9.703686e-03,2.157087e-01
61,2.272455e-01,-1.038543e-02,-9.703695e-03,2.173270e-01
62,2.265627e-01,-1.038340e-02,-9.703710e-03,2.189196e-01
63,2.258243e-01,-1.038120e-02,-9.703725e-03,2.204861e-01
64,2.250735e-01,-1.037896e-02,-9.703742e-03,2.220262e-01
65,2.243570e-01,-1.037683e-02,-9.703761e-03,2.235393e-01
66,2.237229e-01,-1.037495e-02,-9.703785e-03,2.250251e-01
67,2.232184e-01,-1.037347e-02,-9.703816e-03,2.264832e-01
68,2.228862e-01,-1.037252e-02,-9.703857e-03,2.279134e-01
69,2.227612e-01,-1.037218e-02,-9.703899e-03,2.293158e-01
70,2.228686e-01,-1.037254e-02,-9.703938e-03,2.306905e-01
71,2.232215e-01,-1.037364e-02,-9.703980e-03,2.320380e-01
72,2.238201e-01,-1.037549e-02,-9.704032e-03,2.333591e-01
73,2.246511e-01,-1.037804e-02,-9.704084e-03,2.346547e-01
74,2.256875e-01,-1.038120e-02,-9.704134e-03,2.359260e-01
75,2.268903e-01,-1.038485e-02,-9.704179e-03,2.371743e-01
76,2.282108e-01,-1.038886e-02,-9.704225e-03,2.384013e-01
77,2.295955e-01,-1.039306e-02,-9.704277e-03,2.396084e-01
78,2.309907e-01,-1.039730e-02,-9.704324e-03,2.407976e-01
79,2.323480e-01,-1.040141e-02,-9.704369e-03,2.419703e-01
80,2.336282e-01,-1.040529e-02,-9.704406e-03,2.431282e-01
81,2.348040e-01,-1.040885e-02,-9.704435e-03,2.442728e-01
82,2.358606e-01,-1.041204e-02,-9.704459e-03,2.454056e-01
83,2.367957e-01,-1.041488e-02,-9.704490e-03,2.465277e-01
84,2.376172e-01,-1.041737e-02,-9.704520e-03,2.476403e-01
85,2.383402e-01,-1.041955e-02,-9.704532e-03,2.487443e-01
86,2.389828e-01,-1.042150e-02,-9.704548e-03,2.498406e-01
87,2.395618e-01,-1.042325e-02,-9.704567e-03,2.509300e-01
88,2.400881e-01,-1.042485e-02,-9.704586e-03,2.520131e-01
89,2.405630e-01,-1.042631e-02,-9.704618e-03,2.530906e-01
90,2.409769e-01,-1.042759e-02,-9.704655e-03,2.541630e-01
91,2.413106e-01,-1.042862e-02,-9.704693e-03,2.552310e-01
92,2.415381e-01,-1.042936e-02,-9.704741e-03,2.562949e-01
93,2.416322e-01,-1.042969e-02,-9.704797e-03,2.573551e-01
94,2.415693e-01,-1.042958e-02,-9.704870e-03,2.584117e-01
95,2.413349e-01,-1.042895e-02,-9.704944e-03,2.594649e-01
96,2.409268e-01,-1.042780e-02,-9.705021e-03,2.605143e-01
97,2.403571e-01,-1.042617e-02,-9.705099e-03,2.615597e-01
98,2.396519e-01,-1.042414e-02,-9.705182e-03,2.626006e-01
99,2.388497e-01,-1.042182e-02,-9.705266e-03,2.636362e-01
100,3.487075e-01,-1.041804e-02,-9.371922e-03,2.648981e-01
101,3.469019e-01,-1.041274e-02,-9.372030e-03,2.661820e-01
102,3.446684e-01,-1.040616e-02,-9.372153e-03,2.674858e-01
103,3.421078e-01,-1.039860e-02,-9.372277e-03,2.688070e-01
104,3.393323e-01,-1.039039e-02,-9.372390e-03,2.701428e-01
105,3.364604e-01,-1.038187e-02,-9.372493e-03,2.714904e-01
106,3.336076e-01,-1.037342e-02,-9.372600e-03,2.728466e-01
107,3.308750e-01,-1.036534e-02,-9.372714e-03,2.742086e-01
108,3.283378e-01,-1.035785e-02,-9.372834e-03,2.755736e-01
109,3.260380e-01,-1.035107e-02,-9.372953e-03,2.769393e-01
110,3.239845e-01,-1.034504e-02,-9.373082e-03,2.783033e-01
111,3.221614e-01,-1.033971e-02,-9.373222e-03,2.796637e-01
112,3.205397e-01,-1.033498e-02,-9.373364e-03,2.810188e-01
113,3.190904e-01,-1.033078e-02,-9.373507e-03,2.823669e-01
114,3.177935e-01,-1.032701e-02,-9.373632e-03,2.837067e-01
115,3.166429e-01,-1.032368e-02,-9.373756e-03,2.850370e-01
116,3.156476e-01,-1.032083e-02,-9.373884e-03,2.863564e-01
117,3.148279e-01,-1.031851e-02,-9.374022e-03,2.876639e-01
118,3.142092e-01,-1.031680e-02,-9.374169e-03,2.889588e-01
119,3.138118e-01,-1.031575e-02,-9.374313e-03,2.902402e-01
120,3.136405e-01,-1.031539e-02,-9.374473e-03,2.915077e-01
121,3.136765e-01,-1.031568e-02,-9.374655e-03,2.927612e-01
122,3.138744e-01,-1.031647e-02,-9.374849e-03,2.940005e-01
123,3.141660e-01,-1.031753e-02,-9.375037e-03,2.952261e-01
124,3.144706e-01,-1.031862e-02,-9.375210e-03,2.964381e-01
125,3.147084e-01,-1.031950e-02,-9.375373e-03,2.976372e-01
126,3.148127e-01,-1.031996e-02,-9.375522e-03,2.988235e-01
127,3.147397e-01,-1.031988e-02,-9.375658e-03,2.999975e-01
128,3.144716e-01,-1.031921e-02,-9.375792e-03,3.011593e-01
129,3.140163e-01,-1.031799e-02,-9.375936e-03,3.023089e-01
130,3.134026e-01,-1.031631e-02,-9.376099e-03,3.034461e-01
131,3.126751e-01,-1.031430e-02,-9.376278e-03,3.045705e-01
132,3.118877e-01,-1.031211e-02,-9.376450e-03,3.056815e-01
133,3.110992e-01,-1.030993e-02,-9.376635e-03,3.067787e-01
134,3.103695e-01,-1.030794e-02,-9.376833e-03,3.078614e-01
135,3.097568e-01,-1.030631e-02,-9.377037e-03,3.089289e-01
136,3.093138e-01,-1.030518e-02,-9.377236e-03,3.099807e-01
137,3.090834e-01,-1.030469e-02,-9.377439e-03,3.110165e-01
138,3.090912e-01,-1.030492e-02,-9.377648e-03,3.120362e-01
139,3.093398e-01,-1.030587e-02,-9.377852e-03,3.130398e-01
140,3.098061e-01,-1.030748e-02,-9.378063e-03,3.140276e-01
141,3.104443e-01,-1.030961e-02,-9.378277e-03,3.150004e-01
142,3.111956e-01,-1.031208e-02,-9.378492e-03,3.159588e-01
143,3.120021e-01,-1.031471e-02,-9.378706e-03,3.169038e-01
144,3.128207e-01,-1.031738e-02,-9.378917e-03,3.178362e-01
145,3.136330e-01,-1.032003e-02,-9.379131e-03,3.187568e-01
146,3.144484e-01,-1.032267e-02,-9.379330e-03,3.196665e-01
147,3.153010e-01,-1.032544e-02,-9.379537e-03,3.205660e-01
148,3.162393e-01,-1.032846e-02,-9.379744e-03,3.214561e-01
149,3.173130e-01,-1.033189e-02,-9.379948e-03,3.223376e-01
150,3.185586e-01,-1.033584e-02,-9.380163e-03,3.232116e-01
151,3.199894e-01,-1.034036e-02,-9.380388e-03,3.240791e-01
152,3.215912e-01,-1.034540e-02,-9.380625e-03,3.249416e-01
153,3.233261e-01,-1.035084e-02,-9.380863e-03,3.258005e-01
154,3.251404e-01,-1.035652e-02,-9.381096e-03,3.266577e-01
155,3.269750e-01,-1.036225e-02,-9.381325e-03,3.275148e-01
156,3.287718e-01,-1.036787e-02,-9.381553e-03,3.283738e-01
157,3.304778e-01,-1.037322e-02,-9.381783e-03,3.292364e-01
158,3.320446e-01,-1.037814e-02,-9.382004e-03,3.301042e-01
159,3.334277e-01,-1.038251e-02,-9.382230e-03,3.309789e-01
160,3.345858e-01,-1.038620e-02,-9.382447e-03,3.318619e-01
161,3.354828e-01,-1.038911e-02,-9.382657e-03,3.327541e-01
162,3.360902e-01,-1.039112e-02,-9.382850e-03,3.336565e-01
163,3.363897e-01,-1.039218e-02,-9.383014e-03,3.345696e-01
164,3.363751e-01,-1.039230e-02,-9.383179e-03,3.354937e-01
165,3.360519e-01,-1.039149e-02,-9.383330e-03,3.364287e-01
166,3.354351e-01,-1.038979e-02,-9.383486e-03,3.373744e-01
167,3.345470e-01,-1.038728e-02,-9.383640e-03,3.383303e-01
168,3.334147e-01,-1.038404e-02,-9.383795e-03,3.392954e-01
169,3.320699e-01,-1.038014e-02,-9.383931e-03,3.402690e-01
170,3.305494e-01,-1.037571e-02,-9.384057e-03,3.412498e-01
171,3.288982e-01,-1.037089e-02,-9.384191e-03,3.422366e-01
172,3.271710e-01,-1.036583e-02,-9.384321e-03,3.432280e-01
173,3.254330e-01,-1.036074e-02,-9.384443e-03,3.442227e-01
174,3.237574e-01,-1.035583e-02,-9.384558e-03,3.452192e-01
175,3.222190e-01,-1.035133e-02,-9.384674e-03,3.462163e-01
176,3.208850e-01,-1.034747e-02,-9.384816e-03,3.472126e-01
177,3.198068e-01,-1.034440e-02,-9.384975e-03,3.482071e-01
178,3.190140e-01,-1.034219e-02,-9.385149e-03,3.491989e-01
179,3.185142e-01,-1.034088e-02,-9.385340e-03,3.501872e-01
180,3.182982e-01,-1.034042e-02,-9.385523e-03,3.511717e-01
181,3.183466e-01,-1.034075e-02,-9.385709e-03,3.521521e-01
182,3.186363e-01,-1.034182e-02,-9.385909e-03,3.531283e-01
183,3.191435e-01,-1.034354e-02,-9.386110e-03,3.541004e-01
184,3.198421e-01,-1.034584e-02,-9.386317e-03,3.550689e-01
185,3.207011e-01,-1.034865e-02,-9.386547e-03,3.560342e-01
186,3.216822e-01,-1.035183e-02,-9.386787e-03,3.569969e-01
187,3.227409e-01,-1.035524e-02,-9.387013e-03,3.579579e-01
188,3.238309e-01,-1.035874e-02,-9.387244e-03,3.589181e-01
189,3.249111e-01,-1.036222e-02,-9.387482e-03,3.598783e-01
190,3.259508e-01,-1.036557e-02,-9.387715e-03,3.608394e-01
191,3.269334e-01,-1.036874e-02,-9.387943e-03,3.618022e-01
192,3.278566e-01,-1.037172e-02,-9.388152e-03,3.627675e-01
193,3.287286e-01,-1.037454e-02,-9.388356e-03,3.637360e-01
194,3.295632e-01,-1.037726e-02,-9.388568e-03,3.647083e-01
195,3.303732e-01,-1.037989e-02,-9.388772e-03,3.656848e-01
196,3.311653e-01,-1.038248e-02,-9.388984e-03,3.666662e-01
197,3.319383e-01,-1.038501e-02,-9.389195e-03,3.676526e-01
198,3.326822e-01,-1.038744e-02,-9.389398e-03,3.686446e-01
199,3.333803e-01,-1.038973e-02,-9.389590e-03,3.696424e-01
200,3.340101e-01,-1.039181e-02,-9.389775e-03,3.706462e-01
201,3.345433e-01,-1.039360e-02,-9.389969e-03,3.716561e-01
202,3.349471e-01,-1.039500e-02,-9.390155e-03,3.726721e-01
203,3.351854e-01,-1.039591e-02,-9.390349e-03,3.736942e-01
204,3.352238e-01,-1.039622e-02,-9.390550e-03,3.747221e-01
205,3.350366e-01,-1.039585e-02,-9.390735e-03,3.757553e-01
206,3.346144e-01,-1.039475e-02,-9.390911e-03,3.767933e-01
207,3.339694e-01,-1.039298e-02,-9.391071e-03,3.778353e-01
208,3.331389e-01,-1.039064e-02,-9.391225e-03,3.788803e-01
209,3.321835e-01,-1.038794e-02,-9.391387e-03,3.799272e-01
210,3.311820e-01,-1.038508e-02,-9.391538e-03,3.809748e-01
211,3.302224e-01,-1.038236e-02,-9.391690e-03,3.820219e-01
212,3.293907e-01,-1.038001e-02,-9.391841e-03,3.830674e-01
213,3.287588e-01,-1.037827e-02,-9.391996e-03,3.841101e-01
214,3.283738e-01,-1.037727e-02,-9.392150e-03,3.851494e-01
215,3.282524e-01,-1.037707e-02,-9.392313e-03,3.861845e-01
216,3.283801e-01,-1.037762e-02,-9.392485e-03,3.872153e-01
217,3.287166e-01,-1.037882e-02,-9.392673e-03,3.882416e-01
218,3.292049e-01,-1.038048e-02,-9.392868e-03,3.892634e-01
219,3.297811e-01,-1.038240e-02,-9.393052e-03,3.902810e-01
220,3.303833e-01,-1.038438e-02,-9.393233e-03,3.912946e-01
221,3.309563e-01,-1.038630e-02,-9.393435e-03,3.923047e-01
222,3.314534e-01,-1.038800e-02,-9.393644e-03,3.933113e-01
223,3.318353e-01,-1.038935e-02,-9.393845e-03,3.943149e-01
224,3.320683e-01,-1.039025e-02,-9.394042e-03,3.953155e-01
225,3.321228e-01,-1.039059e-02,-9.394225e-03,3.963132e-01
226,3.319753e-01,-1.039033e-02,-9.394400e-03,3.973081e-01
227,3.316112e-01,-1.038940e-02,-9.394562e-03,3.982998e-01
228,3.310280e-01,-1.038780e-02,-9.394718e-03,3.992883e-01
229,3.302371e-01,-1.038559e-02,-9.394883e-03,4.002731e-01
230,3.292634e-01,-1.038282e-02,-9.395034e-03,4.012536e-01
231,3.281432e-01,-1.037961e-02,-9.395184e-03,4.022293e-01
232,3.269237e-01,-1.037611e-02,-9.395334e-03,4.031994e-01
233,3.256634e-01,-1.037249e-02,-9.395498e-03,4.041630e-01
234,3.244332e-01,-1.036896e-02,-9.395664e-03,4.051194e-01
235,3.233137e-01,-1.036577e-02,-9.395824e-03,4.060678e-01
236,3.223900e-01,-1.036315e-02,-9.395979e-03,4.070073e-01
237,3.217433e-01,-1.036136e-02,-9.396134e-03,4.079372e-01
238,3.214411e-01,-1.036060e-02,-9.396281e-03,4.088571e-01
239,3.215300e-01,-1.036103e-02,-9.396439e-03,4.097667e-01
240,3.220287e-01,-1.036270e-02,-9.396611e-03,4.106658e-01
241,3.229244e-01,-1.036557e-02,-9.396795e-03,4.115546e-01
242,3.241724e-01,-1.036950e-02,-9.396987e-03,4.124335e-01
243,3.257009e-01,-1.037430e-02,-9.397196e-03,4.133032e-01
244,3.274210e-01,-1.037967e-02,-9.397411e-03,4.141644e-01
245,3.292398e-01,-1.038535e-02,-9.397635e-03,4.150181e-01
246,3.310719e-01,-1.039107e-02,-9.397851e-03,4.158654e-01
247,3.328479e-01,-1.039661e-02,-9.398070e-03,4.167075e-01
248,3.345159e-01,-1.040185e-02,-9.398298e-03,4.175455e-01
249,3.360387e-01,-1.040665e-02,-9.398533e-03,4.183806e-01
250,3.373888e-01,-1.041095e-02,-9.398782e-03,4.192139e-01
251,3.385426e-01,-1.041466e-02,-9.399037e-03,4.200465e-01
252,3.394763e-01,-1.041774e-02,-9.399308e-03,4.208797e-01
253,3.401665e-01,-1.042007e-02,-9.399566e-03,4.217144e-01
254,3.405918e-01,-1.042161e-02,-9.399834e-03,4.225515e-01
255,3.407393e-01,-1.042232e-02,-9.400104e-03,4.233921e-01
256,3.406126e-01,-1.042220e-02,-9.400365e-03,4.242367e-01
257,3.402404e-01,-1.042134e-02,-9.400618e-03,4.250859e-01
258,3.396823e-01,-1.041991e-02,-9.400863e-03,4.259403e-01
259,3.390278e-01,-1.041819e-02,-9.401103e-03,4.268000e-01
260,3.383849e-01,-1.041649e-02,-9.401336e-03,4.276652e-01
261,3.378592e-01,-1.041514e-02,-9.401562e-03,4.285360e-01
262,3.375320e-01,-1.041437e-02,-9.401775e-03,4.294128e-01
263,3.374469e-01,-1.041434e-02,-9.401995e-03,4.302956e-01
264,3.376117e-01,-1.041507e-02,-9.402239e-03,4.311848e-01
265,3.380116e-01,-1.041653e-02,-9.402498e-03,4.320809e-01
266,3.386247e-01,-1.041865e-02,-9.402777e-03,4.329842e-01
267,3.394309e-01,-1.042137e-02,-9.403073e-03,4.338952e-01
268,3.404140e-01,-1.042461e-02,-9.403368e-03,4.348144e-01
269,3.415579e-01,-1.042834e-02,-9.403664e-03,4.357422e-01
270,3.428430e-01,-1.043248e-02,-9.403946e-03,4.366792e-01
271,3.442452e-01,-1.043696e-02,-9.404223e-03,4.376256e-01
272,3.457382e-01,-1.044172e-02,-9.404501e-03,4.385821e-01
273,3.472994e-01,-1.044668e-02,-9.404785e-03,4.395488e-01
274,3.489148e-01,-1.045180e-02,-9.405056e-03,4.405262e-01
275,3.505798e-01,-1.045706e-02,-9.405325e-03,4.415145e-01
276,3.522916e-01,-1.046246e-02,-9.405587e-03,4.425140e-01
277,3.540362e-01,-1.046798e-02,-9.405867e-03,4.435250e-01
278,3.557752e-01,-1.047348e-02,-9.406156e-03,4.445474e-01
279,3.574402e-01,-1.047877e-02,-9.406452e-03,4.455816e-01
280,3.589379e-01,-1.048356e-02,-9.406751e-03,4.466273e-01
281,3.601636e-01,-1.048753e-02,-9.407042e-03,4.476844e-01
282,3.610181e-01,-1.049037e-02,-9.407317e-03,4.487526e-01
283,3.614223e-01,-1.049186e-02,-9.407596e-03,4.498310e-01
284,3.613275e-01,-1.049185e-02,-9.407870e-03,4.509187e-01
285,3.607201e-01,-1.049029e-02,-9.408132e-03,4.520146e-01
286,3.596229e-01,-1.048725e-02,-9.408382e-03,4.531171e-01
287,3.580940e-01,-1.048290e-02,-9.408618e-03,4.542244e-01
288,3.562235e-01,-1.047753e-02,-9.408855e-03,4.553346e-01
289,3.541290e-01,-1.047146e-02,-9.409075e-03,4.564457e-01
290,3.519476e-01,-1.046513e-02,-9.409288e-03,4.575556e-01
291,3.498249e-01,-1.045897e-02,-9.409496e-03,4.586622e-01
292,3.479007e-01,-1.045341e-02,-9.409705e-03,4.597636e-01
293,3.462943e-01,-1.044880e-02,-9.409918e-03,4.608581e-01
294,3.450915e-01,-1.044542e-02,-9.410149e-03,4.619445e-01
295,3.443375e-01,-1.044340e-02,-9.410388e-03,4.630216e-01
296,3.440355e-01,-1.044275e-02,-9.410642e-03,4.640890e-01
297,3.441497e-01,-1.044336e-02,-9.410906e-03,4.651465e-01
298,3.446117e-01,-1.044502e-02,-9.411186e-03,4.661941e-01
299,3.453257e-01,-1.044744e-02,-9.411462e-03,4.672324e-01
300,3.461746e-01,-1.045024e-02,-9.411718e-03,4.682619e-01
301,3.470279e-01,-1.045305e-02,-9.411963e-03,4.692835e-01
302,3.477530e-01,-1.045545e-02,-9.412186e-03,4.702980e-01
303,3.482300e-01,-1.045708e-02,-9.412387e-03,4.713062e-01
304,3.483689e-01,-1.045768e-02,-9.412575e-03,4.723089e-01
305,3.481216e-01,-1.045711e-02,-9.412746e-03,4.733067e-01
306,3.474871e-01,-1.045535e-02,-9.412886e-03,4.742999e-01
307,3.465072e-01,-1.045253e-02,-9.413012e-03,4.752888e-01
308,3.452550e-01,-1.044890e-02,-9.413139e-03,4.762734e-01
309,3.438221e-01,-1.044474e-02,-9.413278e-03,4.772536e-01
310,3.423092e-01,-1.044034e-02,-9.413415e-03,4.782290e-01
311,3.408218e-01,-1.043601e-02,-9.413545e-03,4.791994e-01
312,3.394668e-01,-1.043208e-02,-9.413683e-03,4.801643e-01
313,3.383456e-01,-1.042887e-02,-9.413833e-03,4.811233e-01
314,3.375428e-01,-1.042662e-02,-9.413991e-03,4.820761e-01
315,3.371114e-01,-1.042547e-02,-9.414137e-03,4.830222e-01
316,3.370636e-01,-1.042547e-02,-9.414282e-03,4.839615e-01
317,3.373706e-01,-1.042654e-02,-9.414424e-03,4.848940e-01
318,3.379708e-01,-1.042847e-02,-9.414557e-03,4.858196e-01
319,3.387852e-01,-1.043103e-02,-9.414672e-03,4.867387e-01
320,3.397306e-01,-1.043397e-02,-9.414774e-03,4.876513e-01
321,3.407310e-01,-1.043705e-02,-9.414861e-03,4.885578e-01
322,3.417230e-01,-1.044010e-02,-9.414934e-03,4.894584e-01
323,3.426577e-01,-1.044296e-02,-9.414982e-03,4.903533e-01
324,3.434989e-01,-1.044553e-02,-9.415032e-03,4.912427e-01
325,3.442196e-01,-1.044773e-02,-9.415076e-03,4.921267e-01
326,3.447976e-01,-1.044950e-02,-9.415108e-03,4.930051e-01
327,3.452139e-01,-1.045078e-02,-9.415141e-03,4.938779e-01
328,3.454536e-01,-1.045153e-02,-9.415172e-03,4.947448e-01
329,3.455113e-01,-1.045172e-02,-9.415188e-03,4.956055e-01
330,3.453983e-01,-1.045138e-02,-9.415189e-03,4.964596e-01
331,3.451471e-01,-1.045061e-02,-9.415165e-03,4.973064e-01
332,3.448109e-01,-1.044957e-02,-9.415135e-03,4.981455e-01
333,3.444565e-01,-1.044848e-02,-9.415111e-03,4.989763e-01
334,3.441519e-01,-1.044754e-02,-9.415086e-03,4.997981e-01
335,3.439534e-01,-1.044691e-02,-9.415052e-03,5.006104e-01
336,3.438952e-01,-1.044671e-02,-9.415020e-03,5.014129e-01
337,3.439850e-01,-1.044695e-02,-9.414994e-03,5.022053e-01
338,3.442063e-01,-1.044760e-02,-9.414983e-03,5.029873e-01
339,3.445241e-01,-1.044855e-02,-9.414975e-03,5.037588e-01
340,3.448938e-01,-1.044965e-02,-9.414971e-03,5.045199e-01
341,3.452694e-01,-1.045078e-02,-9.414969e-03,5.052704e-01
342,3.456109e-01,-1.045179e-02,-9.414958e-03,5.060106e-01
343,3.458932e-01,-1.045263e-02,-9.414945e-03,5.067404e-01
344,3.461133e-01,-1.045327e-02,-9.414931e-03,5.074601e-01
