TimeStep,Temp,PotEnergy,TotEnergy,MeanSqDisp
0,8.477884e-01,-6.762303e-04,-5.603700e-04,7.984360e-03
1,8.411030e-01,-6.753039e-04,-5.603572e-04,1.594793e-02
2,8.298006e-01,-6.737380e-04,-5.603360e-04,2.386927e-02
3,8.136631e-01,-6.715029e-04,-5.603062e-04,3.172565e-02
4,7.924267e-01,-6.685632e-04,-5.602687e-04,3.949247e-02
5,7.658310e-01,-6.648856e-04,-5.602258e-04,4.714274e-02
6,7.336952e-01,-6.604494e-04,-5.601813e-04,5.464662e-02
7,6.960282e-01,-6.552585e-04,-5.601380e-04,6.197123e-02
8,6.531694e-01,-6.493602e-04,-5.600969e-04,6.908081e-02
9,6.059420e-01,-6.428655e-04,-5.600563e-04,7.593736e-02
10,5.557656e-01,-6.359685e-04,-5.600165e-04,8.250202e-02
11,5.046586e-01,-6.289458e-04,-5.599783e-04,8.873716e-02
12,4.550716e-01,-6.221348e-04,-5.599439e-04,9.460910e-02
13,4.095612e-01,-6.158872e-04,-5.599158e-04,1.000909e-01
14,3.703875e-01,-6.105144e-04,-5.598966e-04,1.051650e-01
15,3.391654e-01,-6.062383e-04,-5.598873e-04,1.098246e-01
16,3.166682e-01,-6.031642e-04,-5.598878e-04,1.140737e-01
17,3.028198e-01,-6.012798e-04,-5.598959e-04,1.179271e-01
18,2.968393e-01,-6.004756e-04,-5.599090e-04,1.214076e-01
19,2.974677e-01,-6.005773e-04,-5.599248e-04,1.245447e-01
20,3.032053e-01,-6.013778e-04,-5.599413e-04,1.273715e-01
21,3.125133e-01,-6.026656e-04,-5.599569e-04,1.299230e-01
22,3.239598e-01,-6.042440e-04,-5.599710e-04,1.322340e-01
23,3.363087e-01,-6.059438e-04,-5.599832e-04,1.343375e-01
24,3.485638e-01,-6.076288e-04,-5.599934e-04,1.362638e-01
25,3.599771e-01,-6.091970e-04,-5.600018e-04,1.380397e-01
26,3.700366e-01,-6.105785e-04,-5.600087e-04,1.396884e-01
27,3.784402e-01,-6.117325e-04,-5.600142e-04,1.412290e-01
28,3.850644e-01,-6.126421e-04,-5.600185e-04,1.426767e-01
29,3.899310e-01,-6.133105e-04,-5.600218e-04,1.440432e-01
30,3.931737e-01,-6.137565e-04,-5.600247e-04,1.453372e-01
31,3.950076e-01,-6.140095e-04,-5.600271e-04,1.465646e-01
32,3.957004e-01,-6.141065e-04,-5.600294e-04,1.477289e-01
33,3.955476e-01,-6.140878e-04,-5.600316e-04,1.488323e-01
34,3.948500e-01,-6.139946e-04,-5.600337e-04,1.498755e-01
35,3.938941e-01,-6.138665e-04,-5.600362e-04,1.508586e-01
36,3.929335e-01,-6.137379e-04,-5.600389e-04,1.517814e-01
37,3.921733e-01,-6.136373e-04,-5.600421e-04,1.526437e-01
38,3.917587e-01,-6.135843e-04,-5.600459e-04,1.534455e-01
39,3.917733e-01,-6.135906e-04,-5.600502e-04,1.541874e-01
40,3.922437e-01,-6.136596e-04,-5.600549e-04,1.548703e-01
41,3.931527e-01,-6.137887e-04,-5.600598e-04,1.554959e-01
42,3.944551e-01,-6.139716e-04,-5.600647e-04,1.560661e-01
43,3.960921e-01,-6.142002e-04,-5.600696e-04,1.565833e-01
44,3.980007e-01,-6.144657e-04,-5.600742e-04,1.570500e-01
45,4.001173e-01,-6.147595e-04,-5.600788e-04,1.574691e-01
46,4.023776e-01,-6.150729e-04,-5.600833e-04,1.578436e-01
47,4.047170e-01,-6.153971e-04,-5.600878e-04,1.581763e-01
48,4.070744e-01,-6.157236e-04,-5.600921e-04,1.584704e-01
49,4.093977e-01,-6.160451e-04,-5.600961e-04,1.587285e-01
50,4.116497e-01,-6.163568e-04,-5.601000e-04,1.589534e-01
51,4.138124e-01,-6.166561e-04,-5.601038e-04,1.591476e-01
52,4.158867e-01,-6.169430e-04,-5.601072e-04,1.593134e-01
53,4.178872e-01,-6.172197e-04,-5.601105e-04,1.594530e-01
54,4.198340e-01,-6.174891e-04,-5.601138e-04,1.595682e-01
55,4.217438e-01,-6.177535e-04,-5.601173e-04,1.596609e-01
56,4.236246e-01,-6.180140e-04,-5.601207e-04,1.597330e-01
57,4.254750e-01,-6.182700e-04,-5.601238e-04,1.597863e-01
58,4.272861e-01,-6.185205e-04,-5.601268e-04,1.598226e-01
59,4.290439e-01,-6.187633e-04,-5.601294e-04,1.598435e-01
60,4.307315e-01,-6.189963e-04,-5.601318e-04,1.598508e-01
61,4.323287e-01,-6.192167e-04,-5.601338e-04,1.598460e-01
62,4.338114e-01,-6.194213e-04,-5.601358e-04,1.598308e-01
63,4.351506e-01,-6.196059e-04,-5.601374e-04,1.598065e-01
64,4.363140e-01,-6.197662e-04,-5.601388e-04,1.597745e-01
65,4.372715e-01,-6.198983e-04,-5.601400e-04,1.597359e-01
66,4.380034e-01,-6.199992e-04,-5.601409e-04,1.596914e-01
67,4.385078e-01,-6.200687e-04,-5.601414e-04,1.596416e-01
68,4.388054e-01,-6.201094e-04,-5.601415e-04,1.595868e-01
69,4.389373e-01,-6.201273e-04,-5.601414e-04,1.595270e-01
70,4.389592e-01,-6.201300e-04,-5.601410e-04,1.594620e-01
71,4.389319e-01,-6.201260e-04,-5.601408e-04,1.593913e-01
72,4.389137e-01,-6.201234e-04,-5.601406e-04,1.593146e-01
73,4.389553e-01,-6.201290e-04,-5.601406e-04,1.592315e-01
74,4.390969e-01,-6.201480e-04,-5.601403e-04,1.591415e-01
75,4.393684e-01,-6.201848e-04,-5.601399e-04,1.590446e-01
76,4.397896e-01,-6.202419e-04,-5.601395e-04,1.589407e-01
77,4.403699e-01,-6.203209e-04,-5.601392e-04,1.588299e-01
78,4.411055e-01,-6.204213e-04,-5.601391e-04,1.587127e-01
79,4.419773e-01,-6.205407e-04,-5.601393e-04,1.585896e-01
80,4.429511e-01,-6.206740e-04,-5.601395e-04,1.584615e-01
81,4.439818e-01,-6.208152e-04,-5.601399e-04,1.583292e-01
82,4.450214e-01,-6.209575e-04,-5.601401e-04,1.581938e-01
83,4.460246e-01,-6.210946e-04,-5.601400e-04,1.580563e-01
84,4.469525e-01,-6.212211e-04,-5.601398e-04,1.579177e-01
85,4.477745e-01,-6.213331e-04,-5.601394e-04,1.577789e-01
86,4.484675e-01,-6.214272e-04,-5.601388e-04,1.576406e-01
87,4.490170e-01,-6.215016e-04,-5.601381e-04,1.575034e-01
88,4.494166e-01,-6.215553e-04,-5.601372e-04,1.573677e-01
89,4.496690e-01,-6.215886e-04,-5.601360e-04,1.572339e-01
90,4.497869e-01,-6.216033e-04,-5.601347e-04,1.571019e-01
91,4.497928e-01,-6.216027e-04,-5.601332e-04,1.569715e-01
92,4.497180e-01,-6.215909e-04,-5.601317e-04,1.568427e-01
93,4.495993e-01,-6.215730e-04,-5.601299e-04,1.567149e-01
94,4.494749e-01,-6.215543e-04,-5.601282e-04,1.565878e-01
95,4.493791e-01,-6.215397e-04,-5.601267e-04,1.564610e-01
96,4.493391e-01,-6.215328e-04,-5.601253e-04,1.563342e-01
97,4.493720e-01,-6.215359e-04,-5.601239e-04,1.562071e-01
98,4.494845e-01,-6.215500e-04,-5.601227e-04,1.560797e-01
99,4.496724e-01,-6.215745e-04,-5.601214e-04,1.559518e-01
100,8.483617e-01,-6.213486e-04,-5.054100e-04,1.558719e-01
101,8.428926e-01,-6.205981e-04,-5.054068e-04,1.559823e-01
102,8.337995e-01,-6.193511e-04,-5.054025e-04,1.562755e-01
103,8.214640e-01,-6.176597e-04,-5.053970e-04,1.567395e-01
104,8.064361e-01,-6.155996e-04,-5.053906e-04,1.573574e-01
105,7.894006e-01,-6.132651e-04,-5.053842e-04,1.581094e-01
106,7.711182e-01,-6.107603e-04,-5.053779e-04,1.589728e-01
107,7.523592e-01,-6.081908e-04,-5.053720e-04,1.599243e-01
108,7.338543e-01,-6.056564e-04,-5.053665e-04,1.609403e-01
109,7.162704e-01,-6.032483e-04,-5.053615e-04,1.619982e-01
110,7.001934e-01,-6.010470e-04,-5.053573e-04,1.630775e-01
111,6.860964e-01,-5.991175e-04,-5.053543e-04,1.641599e-01
112,6.742887e-01,-5.975024e-04,-5.053529e-04,1.652302e-01
113,6.648742e-01,-5.962159e-04,-5.053530e-04,1.662768e-01
114,6.577529e-01,-5.952442e-04,-5.053545e-04,1.672909e-01
115,6.526736e-01,-5.945520e-04,-5.053565e-04,1.682668e-01
116,6.493115e-01,-5.940944e-04,-5.053583e-04,1.692013e-01
117,6.473339e-01,-5.938257e-04,-5.053598e-04,1.700932e-01
118,6.464389e-01,-5.937045e-04,-5.053610e-04,1.709425e-01
119,6.463695e-01,-5.936957e-04,-5.053617e-04,1.717504e-01
120,6.469109e-01,-5.937701e-04,-5.053621e-04,1.725188e-01
121,6.478827e-01,-5.939034e-04,-5.053626e-04,1.732499e-01
122,6.491299e-01,-5.940746e-04,-5.053634e-04,1.739464e-01
123,6.505179e-01,-5.942652e-04,-5.053643e-04,1.746111e-01
124,6.519272e-01,-5.944586e-04,-5.053651e-04,1.752466e-01
125,6.532481e-01,-5.946401e-04,-5.053660e-04,1.758555e-01
126,6.543789e-01,-5.947957e-04,-5.053671e-04,1.764403e-01
127,6.552286e-01,-5.949133e-04,-5.053685e-04,1.770031e-01
128,6.557288e-01,-5.949830e-04,-5.053699e-04,1.775455e-01
129,6.558460e-01,-5.950003e-04,-5.053712e-04,1.780688e-01
130,6.555849e-01,-5.949658e-04,-5.053724e-04,1.785736e-01
131,6.549808e-01,-5.948844e-04,-5.053735e-04,1.790604e-01
132,6.540901e-01,-5.947639e-04,-5.053747e-04,1.795289e-01
133,6.529871e-01,-5.946142e-04,-5.053758e-04,1.799787e-01
134,6.517657e-01,-5.944482e-04,-5.053767e-04,1.804089e-01
135,6.505385e-01,-5.942811e-04,-5.053773e-04,1.808188e-01
136,6.494281e-01,-5.941299e-04,-5.053779e-04,1.812072e-01
137,6.485519e-01,-5.940108e-04,-5.053785e-04,1.815735e-01
138,6.480031e-01,-5.939370e-04,-5.053797e-04,1.819169e-01
139,6.478350e-01,-5.939153e-04,-5.053810e-04,1.822372e-01
140,6.480565e-01,-5.939472e-04,-5.053826e-04,1.825345e-01
141,6.486391e-01,-5.940286e-04,-5.053844e-04,1.828095e-01
142,6.495296e-01,-5.941521e-04,-5.053862e-04,1.830629e-01
143,6.506590e-01,-5.943084e-04,-5.053882e-04,1.832959e-01
144,6.519449e-01,-5.944863e-04,-5.053903e-04,1.835100e-01
145,6.532909e-01,-5.946723e-04,-5.053924e-04,1.837068e-01
146,6.545936e-01,-5.948525e-04,-5.053945e-04,1.838877e-01
147,6.557552e-01,-5.950133e-04,-5.053966e-04,1.840544e-01
148,6.566999e-01,-5.951442e-04,-5.053985e-04,1.842082e-01
149,6.573853e-01,-5.952394e-04,-5.053999e-04,1.843500e-01
150,6.578058e-01,-5.952979e-04,-5.054010e-04,1.844806e-01
151,6.579917e-01,-5.953241e-04,-5.054017e-04,1.846004e-01
152,6.580069e-01,-5.953265e-04,-5.054021e-04,1.847095e-01
153,6.579425e-01,-5.953177e-04,-5.054021e-04,1.848077e-01
154,6.578991e-01,-5.953118e-04,-5.054021e-04,1.848949e-01
155,6.579570e-01,-5.953201e-04,-5.054025e-04,1.849710e-01
156,6.581478e-01,-5.953469e-04,-5.054032e-04,1.850359e-01
157,6.584423e-01,-5.953882e-04,-5.054043e-04,1.850898e-01
158,6.587660e-01,-5.954336e-04,-5.054055e-04,1.851330e-01
159,6.590341e-01,-5.954713e-04,-5.054065e-04,1.851658e-01
160,6.591880e-01,-5.954932e-04,-5.054074e-04,1.851884e-01
161,6.592163e-01,-5.954978e-04,-5.054081e-04,1.852008e-01
162,6.591568e-01,-5.954901e-04,-5.054085e-04,1.852027e-01
163,6.590863e-01,-5.954804e-04,-5.054085e-04,1.851939e-01
164,6.591046e-01,-5.954825e-04,-5.054081e-04,1.851739e-01
165,6.593115e-01,-5.955104e-04,-5.054077e-04,1.851424e-01
166,6.597820e-01,-5.955747e-04,-5.054077e-04,1.850992e-01
167,6.605478e-01,-5.956795e-04,-5.054079e-04,1.850445e-01
168,6.615935e-01,-5.958227e-04,-5.054081e-04,1.849790e-01
169,6.628666e-01,-5.959969e-04,-5.054084e-04,1.849035e-01
170,6.642923e-01,-5.961918e-04,-5.054084e-04,1.848191e-01
171,6.657916e-01,-5.963966e-04,-5.054083e-04,1.847273e-01
172,6.672944e-01,-5.966017e-04,-5.054080e-04,1.846296e-01
173,6.687476e-01,-5.968000e-04,-5.054078e-04,1.845272e-01
174,6.701188e-01,-5.969868e-04,-5.054071e-04,1.844217e-01
175,6.714004e-01,-5.971610e-04,-5.054062e-04,1.843143e-01
176,6.726099e-01,-5.973251e-04,-5.054050e-04,1.842061e-01
177,6.737773e-01,-5.974838e-04,-5.054042e-04,1.840982e-01
178,6.749209e-01,-5.976396e-04,-5.054036e-04,1.839916e-01
179,6.760292e-01,-5.977908e-04,-5.054034e-04,1.838876e-01
180,6.770579e-01,-5.979315e-04,-5.054036e-04,1.837870e-01
181,6.779383e-01,-5.980522e-04,-5.054039e-04,1.836910e-01
182,6.785874e-01,-5.981413e-04,-5.054043e-04,1.836006e-01
183,6.789210e-01,-5.981870e-04,-5.054044e-04,1.835164e-01
184,6.788730e-01,-5.981798e-04,-5.054038e-04,1.834390e-01
185,6.784221e-01,-5.981167e-04,-5.054024e-04,1.833681e-01
186,6.776115e-01,-5.980044e-04,-5.054008e-04,1.833035e-01
187,6.765481e-01,-5.978574e-04,-5.053991e-04,1.832441e-01
188,6.753763e-01,-5.976958e-04,-5.053977e-04,1.831886e-01
189,6.742406e-01,-5.975397e-04,-5.053967e-04,1.831358e-01
190,6.732528e-01,-5.974041e-04,-5.053962e-04,1.830844e-01
191,6.724775e-01,-5.972980e-04,-5.053960e-04,1.830331e-01
192,6.719339e-01,-5.972241e-04,-5.053964e-04,1.829813e-01
193,6.716094e-01,-5.971806e-04,-5.053972e-04,1.829283e-01
194,6.714753e-01,-5.971632e-04,-5.053982e-04,1.828738e-01
195,6.714985e-01,-5.971675e-04,-5.053993e-04,1.828176e-01
196,6.716481e-01,-5.971888e-04,-5.054002e-04,1.827599e-01
197,6.719119e-01,-5.972256e-04,-5.054010e-04,1.827006e-01
198,6.723150e-01,-5.972811e-04,-5.054014e-04,1.826399e-01
199,6.729117e-01,-5.973634e-04,-5.054020e-04,1.825780e-01
200,8.498251e-01,-5.973401e-04,-4.812015e-04,1.825443e-01
201,8.477476e-01,-5.970565e-04,-4.812017e-04,1.825824e-01
202,8.438831e-01,-5.965281e-04,-4.812015e-04,1.826901e-01
203,8.384204e-01,-5.957807e-04,-4.812006e-04,1.828631e-01
204,8.316178e-01,-5.948500e-04,-4.811996e-04,1.830953e-01
205,8.237768e-01,-5.937771e-04,-4.811983e-04,1.833792e-01
206,8.152249e-01,-5.926069e-04,-4.811968e-04,1.837065e-01
207,8.063186e-01,-5.913879e-04,-4.811950e-04,1.840679e-01
208,7.974510e-01,-5.901738e-04,-4.811927e-04,1.844539e-01
209,7.890418e-01,-5.890219e-04,-4.811901e-04,1.848553e-01
210,7.815005e-01,-5.879888e-04,-4.811875e-04,1.852632e-01
211,7.751665e-01,-5.871216e-04,-4.811860e-04,1.856701e-01
212,7.702500e-01,-5.864494e-04,-4.811857e-04,1.860698e-01
213,7.668024e-01,-5.859795e-04,-4.811869e-04,1.864579e-01
214,7.647248e-01,-5.856979e-04,-4.811893e-04,1.868316e-01
215,7.637996e-01,-5.855739e-04,-4.811917e-04,1.871896e-01
216,7.637368e-01,-5.855676e-04,-4.811940e-04,1.875319e-01
217,7.642328e-01,-5.856371e-04,-4.811956e-04,1.878592e-01
218,7.650284e-01,-5.857469e-04,-4.811967e-04,1.881729e-01
219,7.659400e-01,-5.858722e-04,-4.811974e-04,1.884744e-01
220,7.668506e-01,-5.859968e-04,-4.811976e-04,1.887649e-01
221,7.676829e-01,-5.861105e-04,-4.811975e-04,1.890458e-01
222,7.683841e-01,-5.862059e-04,-4.811971e-04,1.893182e-01
223,7.689302e-01,-5.862796e-04,-4.811962e-04,1.895831e-01
224,7.693274e-01,-5.863325e-04,-4.811948e-04,1.898412e-01
225,7.695945e-01,-5.863678e-04,-4.811937e-04,1.900931e-01
226,7.697391e-01,-5.863869e-04,-4.811929e-04,1.903396e-01
227,7.697534e-01,-5.863882e-04,-4.811923e-04,1.905809e-01
228,7.696238e-01,-5.863698e-04,-4.811916e-04,1.908176e-01
229,7.693358e-01,-5.863301e-04,-4.811912e-04,1.910500e-01
230,7.688664e-01,-5.862657e-04,-4.811910e-04,1.912782e-01
231,7.681832e-01,-5.861719e-04,-4.811906e-04,1.915023e-01
232,7.672657e-01,-5.860457e-04,-4.811898e-04,1.917221e-01
233,7.661324e-01,-5.858897e-04,-4.811886e-04,1.919371e-01
234,7.648526e-01,-5.857134e-04,-4.811872e-04,1.921464e-01
235,7.635366e-01,-5.855321e-04,-4.811858e-04,1.923490e-01
236,7.623134e-01,-5.853636e-04,-4.811845e-04,1.925438e-01
237,7.613049e-01,-5.852251e-04,-4.811838e-04,1.927298e-01
238,7.605990e-01,-5.851288e-04,-4.811840e-04,1.929061e-01
239,7.602310e-01,-5.850795e-04,-4.811850e-04,1.930722e-01
240,7.601814e-01,-5.850743e-04,-4.811865e-04,1.932279e-01
241,7.603928e-01,-5.851048e-04,-4.811882e-04,1.933733e-01
242,7.607955e-01,-5.851615e-04,-4.811898e-04,1.935088e-01
243,7.613275e-01,-5.852359e-04,-4.811916e-04,1.936350e-01
244,7.619436e-01,-5.853220e-04,-4.811934e-04,1.937525e-01
245,7.626162e-01,-5.854154e-04,-4.811949e-04,1.938620e-01
246,7.633302e-01,-5.855143e-04,-4.811962e-04,1.939643e-01
247,7.640729e-01,-5.856171e-04,-4.811975e-04,1.940600e-01
248,7.648257e-01,-5.857215e-04,-4.811990e-04,1.941502e-01
249,7.655687e-01,-5.858240e-04,-4.812000e-04,1.942354e-01
250,7.662962e-01,-5.859243e-04,-4.812009e-04,1.943167e-01
251,7.670304e-01,-5.860252e-04,-4.812014e-04,1.943946e-01
252,7.678168e-01,-5.861330e-04,-4.812018e-04,1.944699e-01
253,7.687002e-01,-5.862547e-04,-4.812027e-04,1.945434e-01
254,7.696912e-01,-5.863917e-04,-4.812043e-04,1.946160e-01
255,7.707449e-01,-5.865382e-04,-4.812068e-04,1.946888e-01
256,7.717717e-01,-5.866813e-04,-4.812096e-04,1.947628e-01
257,7.726688e-01,-5.868067e-04,-4.812124e-04,1.948392e-01
258,7.733470e-01,-5.869021e-04,-4.812151e-04,1.949190e-01
259,7.737435e-01,-5.869584e-04,-4.812172e-04,1.950029e-01
260,7.738221e-01,-5.869709e-04,-4.812190e-04,1.950913e-01
261,7.735652e-01,-5.869371e-04,-4.812203e-04,1.951843e-01
262,7.729734e-01,-5.868570e-04,-4.812211e-04,1.952816e-01
263,7.720805e-01,-5.867348e-04,-4.812209e-04,1.953826e-01
264,7.709711e-01,-5.865825e-04,-4.812202e-04,1.954863e-01
265,7.697753e-01,-5.864181e-04,-4.812192e-04,1.955914e-01
266,7.686346e-01,-5.862613e-04,-4.812183e-04,1.956967e-01
267,7.676558e-01,-5.861273e-04,-4.812181e-04,1.958008e-01
268,7.668883e-01,-5.860224e-04,-4.812181e-04,1.959028e-01
269,7.663389e-01,-5.859473e-04,-4.812181e-04,1.960020e-01
270,7.660020e-01,-5.859010e-04,-4.812178e-04,1.960977e-01
271,7.658749e-01,-5.858835e-04,-4.812176e-04,1.961896e-01
272,7.659553e-01,-5.858944e-04,-4.812176e-04,1.962775e-01
273,7.662283e-01,-5.859320e-04,-4.812178e-04,1.963616e-01
274,7.666539e-01,-5.859905e-04,-4.812182e-04,1.964419e-01
275,7.671645e-01,-5.860612e-04,-4.812191e-04,1.965190e-01
276,7.676791e-01,-5.861328e-04,-4.812204e-04,1.965933e-01
277,7.681225e-01,-5.861947e-04,-4.812217e-04,1.966653e-01
278,7.684339e-01,-5.862383e-04,-4.812228e-04,1.967353e-01
279,7.685662e-01,-5.862567e-04,-4.812230e-04,1.968038e-01
280,7.684987e-01,-5.862473e-04,-4.812229e-04,1.968708e-01
281,7.682528e-01,-5.862133e-04,-4.812225e-04,1.969361e-01
282,7.678802e-01,-5.861618e-04,-4.812219e-04,1.969995e-01
283,7.674396e-01,-5.861008e-04,-4.812211e-04,1.970605e-01
284,7.669962e-01,-5.860392e-04,-4.812201e-04,1.971185e-01
285,7.666368e-01,-5.859888e-04,-4.812188e-04,1.971732e-01
286,7.664586e-01,-5.859635e-04,-4.812179e-04,1.972240e-01
287,7.665257e-01,-5.859723e-04,-4.812176e-04,1.972708e-01
288,7.668337e-01,-5.860145e-04,-4.812176e-04,1.973138e-01
289,7.673119e-01,-5.860798e-04,-4.812176e-04,1.973534e-01
290,7.678499e-01,-5.861535e-04,-4.812178e-04,1.973903e-01
291,7.683289e-01,-5.862192e-04,-4.812180e-04,1.974254e-01
292,7.686526e-01,-5.862634e-04,-4.812180e-04,1.974593e-01
293,7.687660e-01,-5.862787e-04,-4.812178e-04,1.974927e-01
294,7.686561e-01,-5.862635e-04,-4.812176e-04,1.975256e-01
295,7.683391e-01,-5.862197e-04,-4.812171e-04,1.975583e-01
296,7.678486e-01,-5.861523e-04,-4.812167e-04,1.975903e-01
297,7.672345e-01,-5.860680e-04,-4.812163e-04,1.976214e-01
298,7.665642e-01,-5.859763e-04,-4.812163e-04,1.976507e-01
299,7.659192e-01,-5.858880e-04,-4.812161e-04,1.976776e-01
300,7.653829e-01,-5.858145e-04,-4.812159e-04,1.977015e-01
301,7.650227e-01,-5.857650e-04,-4.812156e-04,1.977218e-01
302,7.648711e-01,-5.857441e-04,-4.812154e-04,1.977380e-01
303,7.649152e-01,-5.857504e-04,-4.812158e-04,1.977503e-01
304,7.651047e-01,-5.857770e-04,-4.812164e-04,1.977586e-01
305,7.653810e-01,-5.858153e-04,-4.812170e-04,1.977633e-01
306,7.657120e-01,-5.858606e-04,-4.812171e-04,1.977647e-01
307,7.661086e-01,-5.859144e-04,-4.812166e-04,1.977631e-01
308,7.666116e-01,-5.859826e-04,-4.812160e-04,1.977588e-01
309,7.672549e-01,-5.860703e-04,-4.812159e-04,1.977521e-01
310,7.680315e-01,-5.861772e-04,-4.812166e-04,1.977438e-01
311,7.688828e-01,-5.862948e-04,-4.812179e-04,1.977346e-01
312,7.697054e-01,-5.864088e-04,-4.812194e-04,1.977253e-01
313,7.703675e-01,-5.865010e-04,-4.812212e-04,1.977170e-01
314,7.707366e-01,-5.865531e-04,-4.812228e-04,1.977104e-01
315,7.707113e-01,-5.865510e-04,-4.812242e-04,1.977062e-01
316,7.702482e-01,-5.864884e-04,-4.812249e-04,1.977043e-01
317,7.693790e-01,-5.863695e-04,-4.812248e-04,1.977042e-01
318,7.682140e-01,-5.862096e-04,-4.812241e-04,1.977052e-01
319,7.669305e-01,-5.860331e-04,-4.812230e-04,1.977059e-01
320,7.657311e-01,-5.858684e-04,-4.812222e-04,1.977048e-01
321,7.647828e-01,-5.857387e-04,-4.812221e-04,1.977006e-01
322,7.641711e-01,-5.856556e-04,-4.812226e-04,1.976923e-01
323,7.639025e-01,-5.856195e-04,-4.812232e-04,1.976793e-01
324,7.639444e-01,-5.856254e-04,-4.812234e-04,1.976613e-01
325,7.642650e-01,-5.856688e-04,-4.812230e-04,1.976382e-01
326,7.648481e-01,-5.857481e-04,-4.812226e-04,1.976103e-01
327,7.656813e-01,-5.858620e-04,-4.812227e-04,1.975781e-01
328,7.667310e-01,-5.860060e-04,-4.812232e-04,1.975423e-01
329,7.679208e-01,-5.861697e-04,-4.812243e-04,1.975038e-01
330,7.691262e-01,-5.863356e-04,-4.812254e-04,1.974636e-01
331,7.701891e-01,-5.864820e-04,-4.812265e-04,1.974230e-01
332,7.709603e-01,-5.865878e-04,-4.812270e-04,1.973829e-01
333,7.713618e-01,-5.866420e-04,-4.812263e-04,1.973438e-01
334,7.714328e-01,-5.866499e-04,-4.812245e-04,1.973060e-01
335,7.713236e-01,-5.866326e-04,-4.812222e-04,1.972693e-01
336,7.712311e-01,-5.866181e-04,-4.812203e-04,1.972332e-01
337,7.713183e-01,-5.866288e-04,-4.812191e-04,1.971974e-01
338,7.716651e-01,-5.866758e-04,-4.812186e-04,1.971618e-01
339,7.722655e-01,-5.867579e-04,-4.812187e-04,1.971267e-01
340,7.730589e-01,-5.868663e-04,-4.812187e-04,1.970926e-01
341,7.739689e-01,-5.869907e-04,-4.812187e-04,1.970605e-01
342,7.749311e-01,-5.871224e-04,-4.812189e-04,1.970311e-01
343,7.759008e-01,-5.872556e-04,-4.812196e-04,1.970055e-01
344,7.768459e-01,-5.873853e-04,-4.812201e-04,1.969845e-01
