TimeStep,Temp,PotEnergy,TotEnergy,MeanSqDisp
0,8.499635e-01,-1.075319e-02,-8.203304e-03,7.984360e-03
1,8.498381e-01,-1.075265e-02,-8.203138e-03,1.596838e-02
2,8.495761e-01,-1.075202e-02,-8.203294e-03,2.395156e-02
3,8.490947e-01,-1.075110e-02,-8.203817e-03,3.193311e-02
4,8.482714e-01,-1.074936e-02,-8.204545e-03,3.991176e-02
5,8.469407e-01,-1.074618e-02,-8.205356e-03,4.788556e-02
6,8.448903e-01,-1.074083e-02,-8.206164e-03,5.585167e-02
7,8.418576e-01,-1.073250e-02,-8.206926e-03,6.380610e-02
8,8.375273e-01,-1.072018e-02,-8.207599e-03,7.174347e-02
9,8.315327e-01,-1.070274e-02,-8.208146e-03,7.965669e-02
10,8.234638e-01,-1.067896e-02,-8.208568e-03,8.753663e-02
11,8.128873e-01,-1.064752e-02,-8.208856e-03,9.537184e-02
12,7.993835e-01,-1.060714e-02,-8.208992e-03,1.031482e-01
13,7.826074e-01,-1.055679e-02,-8.208972e-03,1.108487e-01
14,7.623743e-01,-1.049592e-02,-8.208801e-03,1.184535e-01
15,7.387628e-01,-1.042474e-02,-8.208455e-03,1.259401e-01
16,7.122105e-01,-1.034456e-02,-8.207931e-03,1.332840e-01
17,6.835594e-01,-1.025795e-02,-8.207270e-03,1.404597e-01
18,6.540100e-01,-1.016854e-02,-8.206507e-03,1.474425e-01
19,6.249694e-01,-1.008062e-02,-8.205709e-03,1.542101e-01
20,5.978307e-01,-9.998436e-03,-8.204944e-03,1.607443e-01
21,5.737561e-01,-9.925533e-03,-8.204265e-03,1.670321e-01
22,5.535327e-01,-9.864306e-03,-8.203708e-03,1.730667e-01
23,5.375320e-01,-9.815844e-03,-8.203248e-03,1.788470e-01
24,5.257566e-01,-9.780127e-03,-8.202857e-03,1.843775e-01
25,5.179341e-01,-9.756323e-03,-8.202521e-03,1.896668e-01
26,5.136165e-01,-9.743078e-03,-8.202229e-03,1.947271e-01
27,5.122580e-01,-9.738778e-03,-8.202004e-03,1.995729e-01
28,5.132708e-01,-9.741649e-03,-8.201837e-03,2.042201e-01
29,5.160626e-01,-9.749906e-03,-8.201718e-03,2.086852e-01
30,5.200679e-01,-9.761815e-03,-8.201612e-03,2.129849e-01
31,5.247739e-01,-9.775865e-03,-8.201544e-03,2.171351e-01
32,5.297422e-01,-9.790746e-03,-8.201519e-03,2.211511e-01
33,5.346255e-01,-9.805404e-03,-8.201527e-03,2.250466e-01
34,5.391772e-01,-9.819084e-03,-8.201553e-03,2.288338e-01
35,5.432547e-01,-9.831360e-03,-8.201596e-03,2.325236e-01
36,5.468157e-01,-9.842121e-03,-8.201674e-03,2.361252e-01
37,5.499046e-01,-9.851482e-03,-8.201768e-03,2.396464e-01
38,5.526320e-01,-9.859786e-03,-8.201890e-03,2.430939e-01
39,5.551464e-01,-9.867474e-03,-8.202035e-03,2.464734e-01
40,5.576037e-01,-9.875023e-03,-8.202212e-03,2.497900e-01
41,5.601342e-01,-9.882820e-03,-8.202418e-03,2.530482e-01
42,5.628161e-01,-9.891077e-03,-8.202629e-03,2.562525e-01
43,5.656600e-01,-9.899845e-03,-8.202865e-03,2.594070e-01
44,5.686128e-01,-9.908975e-03,-8.203137e-03,2.625160e-01
45,5.715751e-01,-9.918132e-03,-8.203406e-03,2.655833e-01
46,5.744242e-01,-9.926965e-03,-8.203692e-03,2.686130e-01
47,5.770311e-01,-9.935097e-03,-8.204004e-03,2.716085e-01
48,5.792736e-01,-9.942160e-03,-8.204339e-03,2.745731e-01
49,5.810477e-01,-9.947826e-03,-8.204682e-03,2.775098e-01
50,5.822781e-01,-9.951856e-03,-8.205022e-03,2.804208e-01
51,5.829282e-01,-9.954131e-03,-8.205347e-03,2.833082e-01
52,5.830051e-01,-9.954670e-03,-8.205654e-03,2.861734e-01
53,5.825585e-01,-9.953636e-03,-8.205960e-03,2.890170e-01
54,5.816717e-01,-9.951279e-03,-8.206264e-03,2.918397e-01
55,5.804463e-01,-9.947897e-03,-8.206557e-03,2.946415e-01
56,5.789861e-01,-9.943827e-03,-8.206869e-03,2.974221e-01
57,5.773861e-01,-9.939337e-03,-8.207178e-03,3.001811e-01
58,5.757279e-01,-9.934690e-03,-8.207506e-03,3.029180e-01
59,5.740749e-01,-9.930081e-03,-8.207856e-03,3.056320e-01
60,5.724684e-01,-9.925594e-03,-8.208189e-03,3.083224e-01
61,5.709239e-01,-9.921306e-03,-8.208534e-03,3.109884e-01
62,5.694322e-01,-9.917187e-03,-8.208891e-03,3.136292e-01
63,5.679613e-01,-9.913136e-03,-8.209252e-03,3.162439e-01
64,5.664626e-01,-9.908967e-03,-8.209579e-03,3.188315e-01
65,5.648874e-01,-9.904575e-03,-8.209913e-03,3.213909e-01
66,5.632124e-01,-9.899848e-03,-8.210211e-03,3.239208e-01
67,5.614671e-01,-9.894901e-03,-8.210499e-03,3.264196e-01
68,5.597439e-01,-9.890005e-03,-8.210774e-03,3.288858e-01
69,5.581803e-01,-9.885576e-03,-8.211036e-03,3.313179e-01
70,5.569127e-01,-9.882036e-03,-8.211298e-03,3.337145e-01
71,5.560181e-01,-9.879638e-03,-8.211584e-03,3.360751e-01
72,5.554663e-01,-9.878295e-03,-8.211896e-03,3.383995e-01
73,5.551099e-01,-9.877556e-03,-8.212226e-03,3.406887e-01
74,5.547215e-01,-9.876704e-03,-8.212540e-03,3.429438e-01
75,5.540700e-01,-9.875034e-03,-8.212824e-03,3.451666e-01
76,5.530031e-01,-9.872085e-03,-8.213075e-03,3.473588e-01
77,5.515050e-01,-9.867791e-03,-8.213276e-03,3.495218e-01
78,5.497048e-01,-9.862566e-03,-8.213451e-03,3.516567e-01
79,5.478331e-01,-9.857129e-03,-8.213629e-03,3.537643e-01
80,5.461418e-01,-9.852238e-03,-8.213812e-03,3.558454e-01
81,5.448195e-01,-9.848468e-03,-8.214010e-03,3.579007e-01
82,5.439367e-01,-9.846057e-03,-8.214247e-03,3.599310e-01
83,5.434423e-01,-9.844802e-03,-8.214475e-03,3.619375e-01
84,5.432053e-01,-9.844294e-03,-8.214678e-03,3.639212e-01
85,5.430779e-01,-9.844089e-03,-8.214856e-03,3.658835e-01
86,5.429444e-01,-9.843847e-03,-8.215014e-03,3.678256e-01
87,5.427402e-01,-9.843385e-03,-8.215164e-03,3.697485e-01
88,5.424391e-01,-9.842644e-03,-8.215327e-03,3.716530e-01
89,5.420267e-01,-9.841583e-03,-8.215503e-03,3.735399e-01
90,5.414829e-01,-9.840119e-03,-8.215670e-03,3.754096e-01
91,5.407874e-01,-9.838174e-03,-8.215811e-03,3.772626e-01
92,5.399495e-01,-9.835787e-03,-8.215939e-03,3.790989e-01
93,5.390485e-01,-9.833211e-03,-8.216065e-03,3.809183e-01
94,5.382599e-01,-9.830980e-03,-8.216201e-03,3.827206e-01
95,5.378394e-01,-9.829845e-03,-8.216326e-03,3.845054e-01
96,5.380557e-01,-9.830631e-03,-8.216464e-03,3.862722e-01
97,5.390948e-01,-9.833920e-03,-8.216636e-03,3.880210e-01
98,5.409900e-01,-9.839810e-03,-8.216841e-03,3.897523e-01
99,5.436162e-01,-9.847908e-03,-8.217059e-03,3.914670e-01
100,8.527247e-01,-9.856307e-03,-7.298133e-03,3.936210e-01
101,8.534447e-01,-9.858636e-03,-7.298302e-03,3.958144e-01
102,8.520436e-01,-9.854548e-03,-7.298417e-03,3.980465e-01
103,8.485524e-01,-9.844161e-03,-7.298504e-03,4.003149e-01
104,8.431454e-01,-9.827995e-03,-7.298559e-03,4.026165e-01
105,8.361209e-01,-9.806925e-03,-7.298562e-03,4.049469e-01
106,8.278598e-01,-9.782120e-03,-7.298541e-03,4.073013e-01
107,8.187662e-01,-9.754829e-03,-7.298531e-03,4.096742e-01
108,8.092067e-01,-9.726130e-03,-7.298510e-03,4.120601e-01
109,7.994759e-01,-9.696913e-03,-7.298486e-03,4.144533e-01
110,7.898030e-01,-9.667885e-03,-7.298476e-03,4.168482e-01
111,7.803915e-01,-9.639653e-03,-7.298479e-03,4.192392e-01
112,7.714718e-01,-9.612890e-03,-7.298475e-03,4.216208e-01
113,7.633480e-01,-9.588508e-03,-7.298464e-03,4.239874e-01
114,7.564264e-01,-9.567661e-03,-7.298382e-03,4.263342e-01
115,7.512018e-01,-9.551877e-03,-7.298271e-03,4.286566e-01
116,7.481690e-01,-9.542703e-03,-7.298196e-03,4.309517e-01
117,7.476649e-01,-9.541141e-03,-7.298147e-03,4.332177e-01
118,7.497086e-01,-9.547288e-03,-7.298162e-03,4.354550e-01
119,7.539377e-01,-9.560046e-03,-7.298233e-03,4.376660e-01
120,7.596782e-01,-9.577354e-03,-7.298319e-03,4.398542e-01
121,7.661046e-01,-9.596696e-03,-7.298382e-03,4.420245e-01
122,7.724098e-01,-9.615665e-03,-7.298436e-03,4.441821e-01
123,7.779343e-01,-9.632269e-03,-7.298467e-03,4.463317e-01
124,7.822426e-01,-9.645203e-03,-7.298475e-03,4.484781e-01
125,7.851547e-01,-9.653898e-03,-7.298433e-03,4.506248e-01
126,7.867392e-01,-9.658584e-03,-7.298366e-03,4.527749e-01
127,7.872664e-01,-9.660080e-03,-7.298281e-03,4.549308e-01
128,7.871290e-01,-9.659598e-03,-7.298211e-03,4.570942e-01
129,7.867473e-01,-9.658401e-03,-7.298160e-03,4.592666e-01
130,7.864811e-01,-9.657580e-03,-7.298137e-03,4.614492e-01
131,7.865446e-01,-9.657798e-03,-7.298164e-03,4.636432e-01
132,7.869457e-01,-9.659053e-03,-7.298216e-03,4.658498e-01
133,7.875254e-01,-9.660832e-03,-7.298256e-03,4.680702e-01
134,7.881080e-01,-9.662579e-03,-7.298255e-03,4.703055e-01
135,7.886300e-01,-9.664104e-03,-7.298214e-03,4.725564e-01
136,7.891287e-01,-9.665517e-03,-7.298131e-03,4.748233e-01
137,7.896336e-01,-9.666939e-03,-7.298038e-03,4.771066e-01
138,7.900891e-01,-9.668223e-03,-7.297956e-03,4.794062e-01
139,7.903654e-01,-9.668975e-03,-7.297879e-03,4.817218e-01
140,7.903132e-01,-9.668719e-03,-7.297780e-03,4.840532e-01
141,7.897994e-01,-9.667070e-03,-7.297671e-03,4.863995e-01
142,7.887049e-01,-9.663708e-03,-7.297593e-03,4.887598e-01
143,7.869114e-01,-9.658243e-03,-7.297508e-03,4.911328e-01
144,7.843076e-01,-9.650315e-03,-7.297392e-03,4.935169e-01
145,7.808287e-01,-9.639752e-03,-7.297266e-03,4.959103e-01
146,7.765172e-01,-9.626686e-03,-7.297135e-03,4.983109e-01
147,7.715772e-01,-9.611743e-03,-7.297012e-03,5.007167e-01
148,7.663860e-01,-9.596028e-03,-7.296870e-03,5.031255e-01
149,7.614392e-01,-9.581065e-03,-7.296748e-03,5.055357e-01
150,7.572308e-01,-9.568372e-03,-7.296679e-03,5.079460e-01
151,7.541165e-01,-9.559011e-03,-7.296661e-03,5.103559e-01
152,7.522263e-01,-9.553358e-03,-7.296679e-03,5.127651e-01
153,7.514658e-01,-9.551130e-03,-7.296733e-03,5.151735e-01
154,7.515958e-01,-9.551556e-03,-7.296768e-03,5.175813e-01
155,7.523403e-01,-9.553811e-03,-7.296790e-03,5.199880e-01
156,7.534623e-01,-9.557214e-03,-7.296827e-03,5.223929e-01
157,7.547720e-01,-9.561197e-03,-7.296881e-03,5.247949e-01
158,7.560943e-01,-9.565210e-03,-7.296927e-03,5.271923e-01
159,7.572534e-01,-9.568701e-03,-7.296941e-03,5.295836e-01
160,7.581020e-01,-9.571246e-03,-7.296940e-03,5.319668e-01
161,7.585688e-01,-9.572618e-03,-7.296912e-03,5.343401e-01
162,7.586738e-01,-9.572921e-03,-7.296900e-03,5.367020e-01
163,7.585009e-01,-9.572398e-03,-7.296895e-03,5.390508e-01
164,7.581644e-01,-9.571365e-03,-7.296871e-03,5.413852e-01
165,7.578013e-01,-9.570257e-03,-7.296853e-03,5.437040e-01
166,7.575672e-01,-9.569543e-03,-7.296841e-03,5.460055e-01
167,7.576127e-01,-9.569656e-03,-7.296818e-03,5.482884e-01
168,7.580563e-01,-9.570957e-03,-7.296788e-03,5.505512e-01
169,7.589759e-01,-9.573688e-03,-7.296760e-03,5.527926e-01
170,7.604134e-01,-9.577987e-03,-7.296747e-03,5.550120e-01
171,7.623687e-01,-9.583852e-03,-7.296746e-03,5.572096e-01
172,7.647773e-01,-9.591068e-03,-7.296736e-03,5.593862e-01
173,7.674811e-01,-9.599185e-03,-7.296742e-03,5.615434e-01
174,7.702139e-01,-9.607402e-03,-7.296760e-03,5.636833e-01
175,7.726173e-01,-9.614649e-03,-7.296797e-03,5.658083e-01
176,7.742874e-01,-9.619687e-03,-7.296825e-03,5.679206e-01
177,7.748460e-01,-9.621355e-03,-7.296817e-03,5.700220e-01
178,7.740372e-01,-9.618873e-03,-7.296762e-03,5.721136e-01
179,7.718372e-01,-9.612145e-03,-7.296633e-03,5.741953e-01
180,7.685209e-01,-9.602018e-03,-7.296455e-03,5.762665e-01
181,7.646097e-01,-9.590109e-03,-7.296280e-03,5.783257e-01
182,7.606929e-01,-9.578219e-03,-7.296140e-03,5.803712e-01
183,7.572324e-01,-9.567791e-03,-7.296093e-03,5.824012e-01
184,7.544806e-01,-9.559506e-03,-7.296064e-03,5.844141e-01
185,7.525337e-01,-9.553636e-03,-7.296035e-03,5.864085e-01
186,7.514386e-01,-9.550299e-03,-7.295983e-03,5.883832e-01
187,7.512649e-01,-9.549721e-03,-7.295926e-03,5.903377e-01
188,7.520953e-01,-9.552203e-03,-7.295917e-03,5.922716e-01
189,7.539331e-01,-9.557742e-03,-7.295942e-03,5.941855e-01
190,7.565855e-01,-9.565795e-03,-7.296039e-03,5.960805e-01
191,7.596359e-01,-9.575067e-03,-7.296159e-03,5.979587e-01
192,7.625631e-01,-9.583944e-03,-7.296255e-03,5.998223e-01
193,7.649289e-01,-9.591097e-03,-7.296310e-03,6.016741e-01
194,7.665069e-01,-9.595838e-03,-7.296317e-03,6.035166e-01
195,7.673033e-01,-9.598169e-03,-7.296260e-03,6.053520e-01
196,7.675052e-01,-9.598696e-03,-7.296180e-03,6.071822e-01
197,7.674158e-01,-9.598335e-03,-7.296088e-03,6.090086e-01
198,7.674037e-01,-9.598199e-03,-7.295988e-03,6.108322e-01
199,7.678571e-01,-9.599468e-03,-7.295897e-03,6.126543e-01
200,7.691113e-01,-9.603191e-03,-7.295857e-03,6.144758e-01
201,7.713377e-01,-9.609873e-03,-7.295861e-03,6.162981e-01
202,7.744432e-01,-9.619242e-03,-7.295912e-03,6.181233e-01
203,7.780559e-01,-9.630166e-03,-7.295998e-03,6.199536e-01
204,7.816258e-01,-9.640973e-03,-7.296095e-03,6.217916e-01
205,7.845946e-01,-9.649952e-03,-7.296168e-03,6.236394e-01
206,7.865470e-01,-9.655828e-03,-7.296187e-03,6.254990e-01
207,7.872921e-01,-9.658025e-03,-7.296149e-03,6.273716e-01
208,7.868624e-01,-9.656680e-03,-7.296093e-03,6.292573e-01
209,7.854497e-01,-9.652372e-03,-7.296023e-03,6.311559e-01
210,7.833066e-01,-9.645867e-03,-7.295947e-03,6.330661e-01
211,7.806575e-01,-9.637852e-03,-7.295879e-03,6.349863e-01
212,7.776567e-01,-9.628781e-03,-7.295811e-03,6.369146e-01
213,7.744048e-01,-9.618978e-03,-7.295764e-03,6.388489e-01
214,7.709953e-01,-9.608706e-03,-7.295720e-03,6.407870e-01
215,7.675476e-01,-9.598305e-03,-7.295662e-03,6.427269e-01
216,7.642004e-01,-9.588226e-03,-7.295625e-03,6.446667e-01
217,7.610820e-01,-9.578829e-03,-7.295583e-03,6.466049e-01
218,7.582964e-01,-9.570445e-03,-7.295556e-03,6.485400e-01
219,7.559443e-01,-9.563370e-03,-7.295537e-03,6.504708e-01
220,7.541534e-01,-9.557950e-03,-7.295489e-03,6.523965e-01
221,7.530715e-01,-9.554650e-03,-7.295435e-03,6.543161e-01
222,7.528092e-01,-9.553808e-03,-7.295380e-03,6.562289e-01
223,7.533692e-01,-9.555455e-03,-7.295348e-03,6.581345e-01
224,7.546110e-01,-9.559181e-03,-7.295348e-03,6.600326e-01
225,7.562699e-01,-9.564157e-03,-7.295347e-03,6.619229e-01
226,7.580106e-01,-9.569397e-03,-7.295365e-03,6.638053e-01
227,7.594943e-01,-9.573867e-03,-7.295385e-03,6.656794e-01
228,7.604521e-01,-9.576738e-03,-7.295381e-03,6.675448e-01
229,7.607578e-01,-9.577597e-03,-7.295323e-03,6.694009e-01
230,7.604729e-01,-9.576657e-03,-7.295238e-03,6.712469e-01
231,7.598370e-01,-9.574660e-03,-7.295149e-03,6.730824e-01
232,7.591906e-01,-9.572623e-03,-7.295051e-03,6.749072e-01
233,7.588415e-01,-9.571513e-03,-7.294988e-03,6.767217e-01
234,7.589172e-01,-9.571745e-03,-7.294993e-03,6.785269e-01
235,7.592882e-01,-9.572898e-03,-7.295034e-03,6.803239e-01
236,7.596388e-01,-9.573978e-03,-7.295061e-03,6.821143e-01
237,7.596600e-01,-9.574028e-03,-7.295048e-03,6.838991e-01
238,7.592340e-01,-9.572661e-03,-7.294959e-03,6.856793e-01
239,7.584843e-01,-9.570279e-03,-7.294826e-03,6.874552e-01
240,7.576824e-01,-9.567713e-03,-7.294666e-03,6.892269e-01
241,7.571274e-01,-9.565938e-03,-7.294556e-03,6.909944e-01
242,7.571168e-01,-9.565818e-03,-7.294468e-03,6.927578e-01
243,7.579945e-01,-9.568368e-03,-7.294384e-03,6.945171e-01
244,7.601352e-01,-9.574725e-03,-7.294319e-03,6.962731e-01
245,7.637865e-01,-9.585705e-03,-7.294346e-03,6.980267e-01
246,7.688495e-01,-9.601012e-03,-7.294463e-03,6.997797e-01
247,7.747645e-01,-9.618934e-03,-7.294640e-03,7.015341e-01
248,7.806044e-01,-9.636650e-03,-7.294837e-03,7.032920e-01
249,7.853331e-01,-9.650991e-03,-7.294992e-03,7.050553e-01
250,7.880934e-01,-9.659340e-03,-7.295060e-03,7.068248e-01
251,7.884053e-01,-9.660266e-03,-7.295050e-03,7.086006e-01
252,7.862364e-01,-9.653647e-03,-7.294938e-03,7.103814e-01
253,7.819676e-01,-9.640641e-03,-7.294739e-03,7.121649e-01
254,7.762939e-01,-9.623381e-03,-7.294500e-03,7.139483e-01
255,7.700876e-01,-9.604521e-03,-7.294258e-03,7.157282e-01
256,7.642360e-01,-9.586775e-03,-7.294067e-03,7.175014e-01
257,7.594726e-01,-9.572362e-03,-7.293945e-03,7.192649e-01
258,7.562377e-01,-9.562601e-03,-7.293888e-03,7.210166e-01
259,7.546189e-01,-9.557747e-03,-7.293890e-03,7.227547e-01
260,7.543981e-01,-9.557129e-03,-7.293934e-03,7.244785e-01
261,7.551822e-01,-9.559524e-03,-7.293978e-03,7.261875e-01
262,7.565449e-01,-9.563620e-03,-7.293986e-03,7.278821e-01
263,7.581095e-01,-9.568287e-03,-7.293958e-03,7.295627e-01
264,7.595608e-01,-9.572607e-03,-7.293925e-03,7.312299e-01
265,7.606381e-01,-9.575772e-03,-7.293857e-03,7.328845e-01
266,7.611586e-01,-9.577235e-03,-7.293759e-03,7.345270e-01
267,7.610664e-01,-9.576832e-03,-7.293633e-03,7.361579e-01
268,7.604616e-01,-9.574847e-03,-7.293463e-03,7.377773e-01
269,7.595884e-01,-9.572032e-03,-7.293267e-03,7.393853e-01
270,7.587891e-01,-9.569423e-03,-7.293056e-03,7.409818e-01
271,7.584332e-01,-9.568180e-03,-7.292881e-03,7.425666e-01
272,7.588276e-01,-9.569233e-03,-7.292750e-03,7.441396e-01
273,7.601276e-01,-9.573047e-03,-7.292664e-03,7.457009e-01
274,7.622803e-01,-9.579464e-03,-7.292623e-03,7.472509e-01
275,7.650289e-01,-9.587694e-03,-7.292607e-03,7.487902e-01
276,7.679815e-01,-9.596562e-03,-7.292617e-03,7.503195e-01
277,7.707261e-01,-9.604813e-03,-7.292635e-03,7.518398e-01
278,7.729573e-01,-9.611531e-03,-7.292659e-03,7.533521e-01
279,7.745671e-01,-9.616373e-03,-7.292672e-03,7.548570e-01
280,7.756530e-01,-9.619626e-03,-7.292667e-03,7.563552e-01
281,7.764232e-01,-9.621936e-03,-7.292666e-03,7.578475e-01
282,7.770402e-01,-9.623808e-03,-7.292688e-03,7.593341e-01
283,7.775054e-01,-9.625242e-03,-7.292725e-03,7.608155e-01
284,7.776694e-01,-9.625764e-03,-7.292756e-03,7.622922e-01
285,7.773538e-01,-9.624829e-03,-7.292768e-03,7.637645e-01
286,7.764851e-01,-9.622214e-03,-7.292759e-03,7.652325e-01
287,7.751564e-01,-9.618205e-03,-7.292736e-03,7.666965e-01
288,7.735964e-01,-9.613489e-03,-7.292700e-03,7.681569e-01
289,7.720777e-01,-9.608919e-03,-7.292686e-03,7.696143e-01
290,7.708059e-01,-9.605108e-03,-7.292691e-03,7.710698e-01
291,7.698324e-01,-9.602215e-03,-7.292717e-03,7.725249e-01
292,7.690165e-01,-9.599851e-03,-7.292802e-03,7.739816e-01
293,7.680492e-01,-9.597066e-03,-7.292918e-03,7.754420e-01
294,7.665295e-01,-9.592606e-03,-7.293018e-03,7.769082e-01
295,7.640771e-01,-9.585296e-03,-7.293065e-03,7.783823e-01
296,7.604607e-01,-9.574454e-03,-7.293072e-03,7.798662e-01
297,7.557174e-01,-9.560157e-03,-7.293005e-03,7.813612e-01
298,7.502137e-01,-9.543517e-03,-7.292876e-03,7.828685e-01
299,7.445991e-01,-9.526535e-03,-7.292738e-03,7.843890e-01
300,8.441740e-01,-9.508962e-03,-6.976440e-03,7.860329e-01
301,8.387285e-01,-9.492581e-03,-6.976395e-03,7.877009e-01
302,8.341602e-01,-9.478894e-03,-6.976413e-03,7.893933e-01
303,8.306581e-01,-9.468454e-03,-6.976479e-03,7.911096e-01
304,8.281503e-01,-9.461023e-03,-6.976572e-03,7.928492e-01
305,8.264317e-01,-9.455953e-03,-6.976658e-03,7.946104e-01
306,8.253132e-01,-9.452642e-03,-6.976702e-03,7.963913e-01
307,8.247259e-01,-9.450892e-03,-6.976715e-03,7.981891e-01
308,8.247296e-01,-9.450921e-03,-6.976732e-03,8.000009e-01
309,8.254233e-01,-9.453046e-03,-6.976776e-03,8.018239e-01
310,8.268229e-01,-9.457337e-03,-6.976868e-03,8.036551e-01
311,8.287808e-01,-9.463310e-03,-6.976967e-03,8.054918e-01
312,8.309961e-01,-9.470088e-03,-6.977100e-03,8.073318e-01
313,8.331079e-01,-9.476552e-03,-6.977229e-03,8.091727e-01
314,8.348246e-01,-9.481818e-03,-6.977344e-03,8.110122e-01
315,8.360222e-01,-9.485460e-03,-6.977394e-03,8.128478e-01
316,8.367709e-01,-9.487704e-03,-6.977392e-03,8.146772e-01
317,8.372843e-01,-9.489266e-03,-6.977413e-03,8.164981e-01
318,8.378162e-01,-9.490900e-03,-6.977451e-03,8.183089e-01
319,8.385519e-01,-9.493187e-03,-6.977532e-03,8.201085e-01
320,8.395394e-01,-9.496286e-03,-6.977668e-03,8.218967e-01
321,8.406875e-01,-9.499918e-03,-6.977856e-03,8.236737e-01
322,8.418208e-01,-9.503481e-03,-6.978019e-03,8.254397e-01
323,8.427597e-01,-9.506440e-03,-6.978160e-03,8.271948e-01
324,8.433902e-01,-9.508485e-03,-6.978314e-03,8.289383e-01
325,8.437035e-01,-9.509568e-03,-6.978458e-03,8.306694e-01
326,8.438157e-01,-9.510009e-03,-6.978562e-03,8.323866e-01
327,8.439819e-01,-9.510556e-03,-6.978611e-03,8.340884e-01
328,8.445724e-01,-9.512335e-03,-6.978618e-03,8.357738e-01
329,8.459386e-01,-9.516478e-03,-6.978662e-03,8.374418e-01
330,8.481765e-01,-9.523301e-03,-6.978772e-03,8.390921e-01
331,8.509696e-01,-9.531858e-03,-6.978949e-03,8.407246e-01
332,8.536848e-01,-9.540189e-03,-6.979135e-03,8.423396e-01
333,8.556525e-01,-9.546218e-03,-6.979261e-03,8.439369e-01
334,8.564149e-01,-9.548598e-03,-6.979354e-03,8.455163e-01
335,8.558245e-01,-9.546858e-03,-6.979384e-03,8.470771e-01
336,8.540106e-01,-9.541451e-03,-6.979419e-03,8.486181e-01
337,8.512804e-01,-9.533263e-03,-6.979422e-03,8.501384e-01
338,8.480035e-01,-9.523437e-03,-6.979426e-03,8.516369e-01
339,8.445177e-01,-9.513020e-03,-6.979467e-03,8.531133e-01
340,8.410910e-01,-9.502819e-03,-6.979546e-03,8.545682e-01
341,8.379559e-01,-9.493488e-03,-6.979620e-03,8.560031e-01
342,8.353740e-01,-9.485830e-03,-6.979708e-03,8.574207e-01
343,8.336517e-01,-9.480764e-03,-6.979809e-03,8.588251e-01
344,8.330531e-01,-9.479113e-03,-6.979954e-03,8.602208e-01
