TimeStep,Temp,PotEnergy,TotEnergy,MeanSqDisp
0,8.996438e-01,-1.189708e-02,-9.198152e-03,8.215838e-03
1,8.985422e-01,-1.189355e-02,-9.197925e-03,1.642842e-02
2,8.965959e-01,-1.188780e-02,-9.198012e-03,2.463420e-02
3,8.936381e-01,-1.187941e-02,-9.198500e-03,3.282899e-02
4,8.894307e-01,-1.186748e-02,-9.199184e-03,4.100769e-02
5,8.836584e-01,-1.185090e-02,-9.199930e-03,4.916386e-02
6,8.759232e-01,-1.182841e-02,-9.200644e-03,5.728936e-02
7,8.657461e-01,-1.179855e-02,-9.201307e-03,6.537386e-02
8,8.525852e-01,-1.175964e-02,-9.201884e-03,7.340429e-02
9,8.358858e-01,-1.170999e-02,-9.202333e-03,8.136434e-02
10,8.151799e-01,-1.164815e-02,-9.202610e-03,8.923406e-02
11,7.902381e-01,-1.157339e-02,-9.202678e-03,9.698966e-02
12,7.612226e-01,-1.148619e-02,-9.202525e-03,1.046041e-01
13,7.287353e-01,-1.138841e-02,-9.202208e-03,1.120479e-01
14,6.937045e-01,-1.128287e-02,-9.201755e-03,1.192913e-01
15,6.572321e-01,-1.117290e-02,-9.201206e-03,1.263056e-01
16,6.205802e-01,-1.106229e-02,-9.200548e-03,1.330645e-01
17,5.852378e-01,-1.095553e-02,-9.199813e-03,1.395450e-01
18,5.528508e-01,-1.085762e-02,-9.199069e-03,1.457291e-01
19,5.249608e-01,-1.077330e-02,-9.198414e-03,1.516054e-01
20,5.026994e-01,-1.070600e-02,-9.197905e-03,1.571695e-01
21,4.865907e-01,-1.065731e-02,-9.197539e-03,1.624251e-01
22,4.765161e-01,-1.062684e-02,-9.197296e-03,1.673832e-01
23,4.718149e-01,-1.061259e-02,-9.197146e-03,1.720607e-01
24,4.714628e-01,-1.061146e-02,-9.197074e-03,1.764786e-01
25,4.742674e-01,-1.061985e-02,-9.197043e-03,1.806605e-01
26,4.790400e-01,-1.063415e-02,-9.197034e-03,1.846305e-01
27,4.847265e-01,-1.065119e-02,-9.197010e-03,1.884116e-01
28,4.904953e-01,-1.066848e-02,-9.196996e-03,1.920250e-01
29,4.957906e-01,-1.068435e-02,-9.196977e-03,1.954894e-01
30,5.003567e-01,-1.069800e-02,-9.196928e-03,1.988203e-01
31,5.042255e-01,-1.070953e-02,-9.196852e-03,2.020308e-01
32,5.076475e-01,-1.071971e-02,-9.196765e-03,2.051315e-01
33,5.109597e-01,-1.072959e-02,-9.196709e-03,2.081316e-01
34,5.144276e-01,-1.074001e-02,-9.196723e-03,2.110394e-01
35,5.181405e-01,-1.075121e-02,-9.196792e-03,2.138630e-01
36,5.220090e-01,-1.076291e-02,-9.196884e-03,2.166105e-01
37,5.258408e-01,-1.077451e-02,-9.196985e-03,2.192895e-01
38,5.294313e-01,-1.078536e-02,-9.197071e-03,2.219076e-01
39,5.326214e-01,-1.079500e-02,-9.197137e-03,2.244714e-01
40,5.353124e-01,-1.080313e-02,-9.197197e-03,2.269868e-01
41,5.374467e-01,-1.080962e-02,-9.197279e-03,2.294592e-01
42,5.389758e-01,-1.081431e-02,-9.197386e-03,2.318927e-01
43,5.398369e-01,-1.081703e-02,-9.197521e-03,2.342909e-01
44,5.399508e-01,-1.081750e-02,-9.197653e-03,2.366566e-01
45,5.392435e-01,-1.081550e-02,-9.197766e-03,2.389916e-01
46,5.376826e-01,-1.081088e-02,-9.197832e-03,2.412968e-01
47,5.353126e-01,-1.080382e-02,-9.197883e-03,2.435722e-01
48,5.322782e-01,-1.079476e-02,-9.197930e-03,2.458171e-01
49,5.288203e-01,-1.078442e-02,-9.197957e-03,2.480297e-01
50,5.252446e-01,-1.077373e-02,-9.197998e-03,2.502081e-01
51,5.218661e-01,-1.076367e-02,-9.198072e-03,2.523502e-01
52,5.189496e-01,-1.075503e-02,-9.198182e-03,2.544541e-01
53,5.166639e-01,-1.074831e-02,-9.198314e-03,2.565185e-01
54,5.150644e-01,-1.074369e-02,-9.198493e-03,2.585425e-01
55,5.141021e-01,-1.074099e-02,-9.198685e-03,2.605261e-01
56,5.136540e-01,-1.073985e-02,-9.198884e-03,2.624696e-01
57,5.135600e-01,-1.073975e-02,-9.199065e-03,2.643737e-01
58,5.136577e-01,-1.074020e-02,-9.199226e-03,2.662395e-01
59,5.138096e-01,-1.074080e-02,-9.199371e-03,2.680680e-01
60,5.139192e-01,-1.074128e-02,-9.199525e-03,2.698603e-01
61,5.139381e-01,-1.074150e-02,-9.199687e-03,2.716173e-01
62,5.138650e-01,-1.074144e-02,-9.199841e-03,2.733401e-01
63,5.137404e-01,-1.074120e-02,-9.199979e-03,2.750295e-01
64,5.136371e-01,-1.074103e-02,-9.200116e-03,2.766864e-01
65,5.136468e-01,-1.074120e-02,-9.200261e-03,2.783117e-01
66,5.138607e-01,-1.074199e-02,-9.200404e-03,2.799067e-01
67,5.143494e-01,-1.074360e-02,-9.200548e-03,2.814723e-01
68,5.151502e-01,-1.074616e-02,-9.200712e-03,2.830100e-01
69,5.162670e-01,-1.074968e-02,-9.200875e-03,2.845211e-01
70,5.176731e-01,-1.075406e-02,-9.201037e-03,2.860071e-01
71,5.193087e-01,-1.075911e-02,-9.201184e-03,2.874694e-01
72,5.210698e-01,-1.076456e-02,-9.201351e-03,2.889092e-01
73,5.228016e-01,-1.076993e-02,-9.201529e-03,2.903277e-01
74,5.243082e-01,-1.077462e-02,-9.201692e-03,2.917259e-01
75,5.253892e-01,-1.077802e-02,-9.201850e-03,2.931041e-01
76,5.258973e-01,-1.077965e-02,-9.201957e-03,2.944627e-01
77,5.258075e-01,-1.077944e-02,-9.202014e-03,2.958010e-01
78,5.252689e-01,-1.077783e-02,-9.202022e-03,2.971183e-01
79,5.245950e-01,-1.077578e-02,-9.201994e-03,2.984134e-01
80,5.241547e-01,-1.077445e-02,-9.201990e-03,2.996854e-01
81,5.241952e-01,-1.077460e-02,-9.202010e-03,3.009338e-01
82,5.247208e-01,-1.077620e-02,-9.202037e-03,3.021589e-01
83,5.255335e-01,-1.077866e-02,-9.202055e-03,3.033617e-01
84,5.263954e-01,-1.078120e-02,-9.202012e-03,3.045437e-01
85,5.271705e-01,-1.078343e-02,-9.201918e-03,3.057063e-01
86,5.278605e-01,-1.078539e-02,-9.201808e-03,3.068511e-01
87,5.285549e-01,-1.078737e-02,-9.201707e-03,3.079792e-01
88,5.293528e-01,-1.078968e-02,-9.201625e-03,3.090922e-01
89,5.303049e-01,-1.079249e-02,-9.201572e-03,3.101914e-01
90,5.313966e-01,-1.079570e-02,-9.201513e-03,3.112782e-01
91,5.325694e-01,-1.079915e-02,-9.201438e-03,3.123545e-01
92,5.337589e-01,-1.080264e-02,-9.201367e-03,3.134217e-01
93,5.349236e-01,-1.080607e-02,-9.201299e-03,3.144818e-01
94,5.360524e-01,-1.080939e-02,-9.201228e-03,3.155362e-01
95,5.371482e-01,-1.081258e-02,-9.201137e-03,3.165867e-01
96,5.382021e-01,-1.081568e-02,-9.201073e-03,3.176346e-01
97,5.391698e-01,-1.081854e-02,-9.201032e-03,3.186814e-01
98,5.399644e-01,-1.082092e-02,-9.201027e-03,3.197283e-01
99,5.404688e-01,-1.082244e-02,-9.201029e-03,3.207763e-01
100,8.986635e-01,-1.081841e-02,-8.122423e-03,3.221716e-01
101,8.938189e-01,-1.080379e-02,-8.122338e-03,3.236488e-01
102,8.856360e-01,-1.077912e-02,-8.122208e-03,3.252037e-01
103,8.746207e-01,-1.074586e-02,-8.122003e-03,3.268296e-01
104,8.616667e-01,-1.070673e-02,-8.121733e-03,3.285175e-01
105,8.479899e-01,-1.066542e-02,-8.121454e-03,3.302575e-01
106,8.348732e-01,-1.062585e-02,-8.121234e-03,3.320392e-01
107,8.232919e-01,-1.059103e-02,-8.121150e-03,3.338530e-01
108,8.136539e-01,-1.056215e-02,-8.121192e-03,3.356912e-01
109,8.058187e-01,-1.053879e-02,-8.121331e-03,3.375476e-01
110,7.993231e-01,-1.051946e-02,-8.121486e-03,3.394183e-01
111,7.936520e-01,-1.050260e-02,-8.121640e-03,3.413000e-01
112,7.884581e-01,-1.048711e-02,-8.121734e-03,3.431905e-01
113,7.836802e-01,-1.047280e-02,-8.121763e-03,3.450879e-01
114,7.795271e-01,-1.046035e-02,-8.121764e-03,3.469905e-01
115,7.763299e-01,-1.045078e-02,-8.121791e-03,3.488972e-01
116,7.743310e-01,-1.044483e-02,-8.121834e-03,3.508074e-01
117,7.735259e-01,-1.044249e-02,-8.121917e-03,3.527215e-01
118,7.736624e-01,-1.044302e-02,-8.122029e-03,3.546406e-01
119,7.743864e-01,-1.044527e-02,-8.122114e-03,3.565662e-01
120,7.753939e-01,-1.044835e-02,-8.122163e-03,3.585001e-01
121,7.764615e-01,-1.045159e-02,-8.122204e-03,3.604442e-01
122,7.773753e-01,-1.045440e-02,-8.122270e-03,3.624003e-01
123,7.778996e-01,-1.045603e-02,-8.122333e-03,3.643700e-01
124,7.778679e-01,-1.045598e-02,-8.122376e-03,3.663546e-01
125,7.773239e-01,-1.045433e-02,-8.122358e-03,3.683550e-01
126,7.765564e-01,-1.045199e-02,-8.122323e-03,3.703712e-01
127,7.759451e-01,-1.045018e-02,-8.122340e-03,3.724032e-01
128,7.756976e-01,-1.044951e-02,-8.122417e-03,3.744508e-01
129,7.756775e-01,-1.044958e-02,-8.122545e-03,3.765139e-01
130,7.754499e-01,-1.044901e-02,-8.122663e-03,3.785921e-01
131,7.744812e-01,-1.044618e-02,-8.122735e-03,3.806848e-01
132,7.723500e-01,-1.043978e-02,-8.122731e-03,3.827907e-01
133,7.688873e-01,-1.042928e-02,-8.122622e-03,3.849071e-01
134,7.642260e-01,-1.041514e-02,-8.122461e-03,3.870304e-01
135,7.587488e-01,-1.039852e-02,-8.122274e-03,3.891555e-01
136,7.529550e-01,-1.038096e-02,-8.122096e-03,3.912768e-01
137,7.473033e-01,-1.036385e-02,-8.121942e-03,3.933883e-01
138,7.421129e-01,-1.034818e-02,-8.121839e-03,3.954837e-01
139,7.375721e-01,-1.033447e-02,-8.121750e-03,3.975573e-01
140,7.338294e-01,-1.032316e-02,-8.121668e-03,3.996040e-01
141,7.310829e-01,-1.031481e-02,-8.121562e-03,4.016197e-01
142,7.295857e-01,-1.031021e-02,-8.121454e-03,4.036017e-01
143,7.295556e-01,-1.031003e-02,-8.121360e-03,4.055494e-01
144,7.310656e-01,-1.031447e-02,-8.121272e-03,4.074641e-01
145,7.339975e-01,-1.032322e-02,-8.121228e-03,4.093492e-01
146,7.380643e-01,-1.033540e-02,-8.121203e-03,4.112094e-01
147,7.428480e-01,-1.034973e-02,-8.121181e-03,4.130504e-01
148,7.478386e-01,-1.036468e-02,-8.121168e-03,4.148780e-01
149,7.525163e-01,-1.037866e-02,-8.121115e-03,4.166978e-01
150,7.564957e-01,-1.039050e-02,-8.121010e-03,4.185149e-01
151,7.596692e-01,-1.039987e-02,-8.120859e-03,4.203334e-01
152,7.622351e-01,-1.040742e-02,-8.120716e-03,4.221564e-01
153,7.645527e-01,-1.041428e-02,-8.120622e-03,4.239866e-01
154,7.669043e-01,-1.042128e-02,-8.120568e-03,4.258257e-01
155,7.693465e-01,-1.042862e-02,-8.120577e-03,4.276757e-01
156,7.717508e-01,-1.043586e-02,-8.120603e-03,4.295382e-01
157,7.739442e-01,-1.044247e-02,-8.120639e-03,4.314148e-01
158,7.758101e-01,-1.044811e-02,-8.120683e-03,4.333068e-01
159,7.773026e-01,-1.045265e-02,-8.120741e-03,4.352154e-01
160,7.784094e-01,-1.045603e-02,-8.120805e-03,4.371416e-01
161,7.791128e-01,-1.045819e-02,-8.120856e-03,4.390860e-01
162,7.793713e-01,-1.045903e-02,-8.120921e-03,4.410494e-01
163,7.791345e-01,-1.045841e-02,-8.121011e-03,4.430321e-01
164,7.783825e-01,-1.045625e-02,-8.121101e-03,4.450343e-01
165,7.771717e-01,-1.045269e-02,-8.121177e-03,4.470558e-01
166,7.756517e-01,-1.044818e-02,-8.121227e-03,4.490961e-01
167,7.740317e-01,-1.044338e-02,-8.121280e-03,4.511543e-01
168,7.724902e-01,-1.043885e-02,-8.121375e-03,4.532292e-01
169,7.710706e-01,-1.043473e-02,-8.121519e-03,4.553196e-01
170,7.696235e-01,-1.043056e-02,-8.121691e-03,4.574239e-01
171,7.678386e-01,-1.042537e-02,-8.121854e-03,4.595406e-01
172,7.653533e-01,-1.041808e-02,-8.122018e-03,4.616675e-01
173,7.618852e-01,-1.040782e-02,-8.122167e-03,4.638021e-01
174,7.573360e-01,-1.039428e-02,-8.122273e-03,4.659410e-01
175,7.518367e-01,-1.037785e-02,-8.122342e-03,4.680802e-01
176,7.457303e-01,-1.035959e-02,-8.122394e-03,4.702150e-01
177,7.395069e-01,-1.034095e-02,-8.122426e-03,4.723401e-01
178,7.337169e-01,-1.032359e-02,-8.122441e-03,4.744504e-01
179,7.288834e-01,-1.030909e-02,-8.122444e-03,4.765408e-01
180,7.254236e-01,-1.029873e-02,-8.122461e-03,4.786071e-01
181,7.235849e-01,-1.029324e-02,-8.122489e-03,4.806459e-01
182,7.234084e-01,-1.029275e-02,-8.122524e-03,4.826546e-01
183,7.247293e-01,-1.029677e-02,-8.122582e-03,4.846318e-01
184,7.272142e-01,-1.030431e-02,-8.122664e-03,4.865770e-01
185,7.304280e-01,-1.031404e-02,-8.122754e-03,4.884904e-01
186,7.339272e-01,-1.032460e-02,-8.122819e-03,4.903724e-01
187,7.373669e-01,-1.033493e-02,-8.122831e-03,4.922243e-01
188,7.405928e-01,-1.034455e-02,-8.122772e-03,4.940470e-01
189,7.436824e-01,-1.035371e-02,-8.122659e-03,4.958419e-01
190,7.469090e-01,-1.036322e-02,-8.122496e-03,4.976104e-01
191,7.506249e-01,-1.037423e-02,-8.122355e-03,4.993544e-01
192,7.551011e-01,-1.038756e-02,-8.122254e-03,5.010766e-01
193,7.603927e-01,-1.040340e-02,-8.122218e-03,5.027803e-01
194,7.662942e-01,-1.042110e-02,-8.122217e-03,5.044699e-01
195,7.723887e-01,-1.043940e-02,-8.122236e-03,5.061503e-01
196,7.781408e-01,-1.045670e-02,-8.122279e-03,5.078268e-01
197,7.829700e-01,-1.047125e-02,-8.122344e-03,5.095043e-01
198,7.862900e-01,-1.048128e-02,-8.122407e-03,5.111864e-01
199,7.875605e-01,-1.048514e-02,-8.122455e-03,5.128757e-01
200,8.982151e-01,-1.047977e-02,-7.785120e-03,5.146972e-01
201,8.926869e-01,-1.046305e-02,-7.784986e-03,5.165398e-01
202,8.838681e-01,-1.043638e-02,-7.784775e-03,5.183990e-01
203,8.727139e-01,-1.040268e-02,-7.784534e-03,5.202686e-01
204,8.604623e-01,-1.036568e-02,-7.784294e-03,5.221419e-01
205,8.483316e-01,-1.032910e-02,-7.784101e-03,5.240124e-01
206,8.373104e-01,-1.029587e-02,-7.783941e-03,5.258754e-01
207,8.281013e-01,-1.026811e-02,-7.783809e-03,5.277277e-01
208,8.211451e-01,-1.024716e-02,-7.783720e-03,5.295684e-01
209,8.166706e-01,-1.023367e-02,-7.783654e-03,5.313980e-01
210,8.147433e-01,-1.022784e-02,-7.783607e-03,5.332184e-01
211,8.152643e-01,-1.022939e-02,-7.783601e-03,5.350323e-01
212,8.179016e-01,-1.023736e-02,-7.783651e-03,5.368425e-01
213,8.220418e-01,-1.024990e-02,-7.783771e-03,5.386517e-01
214,8.268733e-01,-1.026450e-02,-7.783883e-03,5.404621e-01
215,8.315755e-01,-1.027871e-02,-7.783979e-03,5.422749e-01
216,8.354831e-01,-1.029050e-02,-7.784052e-03,5.440904e-01
217,8.381364e-01,-1.029851e-02,-7.784100e-03,5.459073e-01
218,8.392519e-01,-1.030190e-02,-7.784140e-03,5.477236e-01
219,8.387074e-01,-1.030027e-02,-7.784152e-03,5.495354e-01
220,8.366013e-01,-1.029391e-02,-7.784106e-03,5.513379e-01
221,8.333538e-01,-1.028406e-02,-7.784002e-03,5.531250e-01
222,8.297313e-01,-1.027306e-02,-7.783870e-03,5.548901e-01
223,8.266912e-01,-1.026384e-02,-7.783762e-03,5.566270e-01
224,8.250653e-01,-1.025891e-02,-7.783713e-03,5.583308e-01
225,8.252333e-01,-1.025949e-02,-7.783794e-03,5.599992e-01
226,8.269536e-01,-1.026486e-02,-7.784000e-03,5.616324e-01
227,8.294557e-01,-1.027259e-02,-7.784226e-03,5.632330e-01
228,8.317745e-01,-1.027970e-02,-7.784375e-03,5.648051e-01
229,8.331701e-01,-1.028391e-02,-7.784402e-03,5.663532e-01
230,8.334115e-01,-1.028455e-02,-7.784319e-03,5.678813e-01
231,8.327920e-01,-1.028259e-02,-7.784212e-03,5.693928e-01
232,8.319181e-01,-1.027987e-02,-7.784113e-03,5.708902e-01
233,8.314186e-01,-1.027830e-02,-7.784048e-03,5.723758e-01
234,8.317123e-01,-1.027919e-02,-7.784056e-03,5.738515e-01
235,8.328916e-01,-1.028282e-02,-7.784140e-03,5.753196e-01
236,8.347073e-01,-1.028841e-02,-7.784291e-03,5.767820e-01
237,8.366226e-01,-1.029437e-02,-7.784504e-03,5.782414e-01
238,8.379229e-01,-1.029851e-02,-7.784738e-03,5.796999e-01
239,8.378742e-01,-1.029857e-02,-7.784948e-03,5.811598e-01
240,8.359035e-01,-1.029280e-02,-7.785091e-03,5.826224e-01
241,8.317476e-01,-1.028041e-02,-7.785168e-03,5.840881e-01
242,8.255321e-01,-1.026177e-02,-7.785172e-03,5.855558e-01
243,8.177786e-01,-1.023845e-02,-7.785115e-03,5.870228e-01
244,8.093569e-01,-1.021311e-02,-7.785043e-03,5.884855e-01
245,8.013766e-01,-1.018911e-02,-7.784978e-03,5.899391e-01
246,7.949854e-01,-1.016989e-02,-7.784935e-03,5.913791e-01
247,7.910780e-01,-1.015822e-02,-7.784989e-03,5.928016e-01
248,7.900191e-01,-1.015523e-02,-7.785171e-03,5.942042e-01
249,7.915465e-01,-1.016007e-02,-7.785432e-03,5.955860e-01
250,7.949387e-01,-1.017049e-02,-7.785677e-03,5.969483e-01
251,7.993615e-01,-1.018392e-02,-7.785838e-03,5.982932e-01
252,8.041784e-01,-1.019845e-02,-7.785918e-03,5.996240e-01
253,8.090418e-01,-1.021307e-02,-7.785943e-03,6.009440e-01
254,8.137451e-01,-1.022719e-02,-7.785957e-03,6.022565e-01
255,8.179989e-01,-1.024000e-02,-7.786003e-03,6.035649e-01
256,8.213352e-01,-1.025010e-02,-7.786097e-03,6.048724e-01
257,8.232004e-01,-1.025578e-02,-7.786179e-03,6.061821e-01
258,8.231396e-01,-1.025562e-02,-7.786200e-03,6.074968e-01
259,8.209544e-01,-1.024900e-02,-7.786133e-03,6.088189e-01
260,8.167896e-01,-1.023634e-02,-7.785974e-03,6.101502e-01
261,8.111545e-01,-1.021922e-02,-7.785752e-03,6.114917e-01
262,8.048695e-01,-1.020011e-02,-7.785505e-03,6.128434e-01
263,7.989141e-01,-1.018201e-02,-7.785263e-03,6.142046e-01
264,7.941763e-01,-1.016762e-02,-7.785091e-03,6.155739e-01
265,7.911959e-01,-1.015860e-02,-7.785015e-03,6.169494e-01
266,7.900521e-01,-1.015517e-02,-7.785011e-03,6.183288e-01
267,7.904838e-01,-1.015647e-02,-7.785015e-03,6.197101e-01
268,7.921606e-01,-1.016151e-02,-7.785029e-03,6.210910e-01
269,7.949183e-01,-1.016975e-02,-7.784993e-03,6.224695e-01
270,7.988072e-01,-1.018134e-02,-7.784916e-03,6.238440e-01
271,8.039303e-01,-1.019669e-02,-7.784902e-03,6.252137e-01
272,8.101886e-01,-1.021555e-02,-7.784989e-03,6.265786e-01
273,8.171230e-01,-1.023658e-02,-7.785207e-03,6.279399e-01
274,8.239703e-01,-1.025738e-02,-7.785469e-03,6.292992e-01
275,8.298862e-01,-1.027535e-02,-7.785689e-03,6.306582e-01
276,8.341880e-01,-1.028840e-02,-7.785834e-03,6.320184e-01
277,8.365004e-01,-1.029540e-02,-7.785897e-03,6.333802e-01
278,8.367832e-01,-1.029626e-02,-7.785907e-03,6.347430e-01
279,8.352732e-01,-1.029167e-02,-7.785854e-03,6.361055e-01
280,8.323801e-01,-1.028291e-02,-7.785768e-03,6.374660e-01
281,8.285670e-01,-1.027139e-02,-7.785693e-03,6.388222e-01
282,8.242395e-01,-1.025834e-02,-7.785622e-03,6.401724e-01
283,8.196668e-01,-1.024457e-02,-7.785568e-03,6.415148e-01
284,8.149577e-01,-1.023039e-02,-7.785517e-03,6.428483e-01
285,8.101048e-01,-1.021577e-02,-7.785460e-03,6.441718e-01
286,8.050858e-01,-1.020061e-02,-7.785354e-03,6.454844e-01
287,7.999741e-01,-1.018512e-02,-7.785201e-03,6.467850e-01
288,7.950026e-01,-1.017002e-02,-7.785016e-03,6.480718e-01
289,7.905544e-01,-1.015646e-02,-7.784799e-03,6.493428e-01
290,7.870917e-01,-1.014586e-02,-7.784586e-03,6.505955e-01
291,7.850358e-01,-1.013949e-02,-7.784382e-03,6.518278e-01
292,7.846157e-01,-1.013812e-02,-7.784270e-03,6.530381e-01
293,7.857327e-01,-1.014147e-02,-7.784268e-03,6.542265e-01
294,7.879433e-01,-1.014814e-02,-7.784311e-03,6.553940e-01
295,7.906153e-01,-1.015622e-02,-7.784370e-03,6.565433e-01
296,7.931762e-01,-1.016392e-02,-7.784395e-03,6.576773e-01
297,7.953047e-01,-1.017028e-02,-7.784364e-03,6.587989e-01
298,7.970005e-01,-1.017530e-02,-7.784299e-03,6.599107e-01
299,7.985611e-01,-1.017989e-02,-7.784205e-03,6.610150e-01
300,9.014974e-01,-1.018426e-02,-7.479769e-03,6.621875e-01
301,9.028752e-01,-1.018835e-02,-7.479728e-03,6.633681e-01
302,9.045193e-01,-1.019332e-02,-7.479760e-03,6.645595e-01
303,9.063638e-01,-1.019895e-02,-7.479856e-03,6.657646e-01
304,9.078712e-01,-1.020361e-02,-7.479992e-03,6.669865e-01
305,9.082968e-01,-1.020498e-02,-7.480087e-03,6.682284e-01
306,9.070849e-01,-1.020134e-02,-7.480086e-03,6.694923e-01
307,9.041839e-01,-1.019250e-02,-7.479950e-03,6.707791e-01
308,9.001361e-01,-1.018013e-02,-7.479720e-03,6.720878e-01
309,8.958842e-01,-1.016715e-02,-7.479498e-03,6.734165e-01
310,8.923533e-01,-1.015644e-02,-7.479381e-03,6.747627e-01
311,8.900522e-01,-1.014951e-02,-7.479353e-03,6.761241e-01
312,8.889645e-01,-1.014632e-02,-7.479424e-03,6.774987e-01
313,8.887522e-01,-1.014576e-02,-7.479505e-03,6.788852e-01
314,8.890379e-01,-1.014667e-02,-7.479554e-03,6.802828e-01
315,8.895529e-01,-1.014825e-02,-7.479593e-03,6.816906e-01
316,8.901297e-01,-1.015006e-02,-7.479669e-03,6.831080e-01
317,8.906396e-01,-1.015168e-02,-7.479765e-03,6.845339e-01
318,8.909733e-01,-1.015278e-02,-7.479862e-03,6.859668e-01
319,8.910805e-01,-1.015318e-02,-7.479940e-03,6.874051e-01
320,8.909954e-01,-1.015300e-02,-7.480016e-03,6.888469e-01
321,8.907736e-01,-1.015244e-02,-7.480119e-03,6.902901e-01
322,8.903716e-01,-1.015135e-02,-7.480233e-03,6.917334e-01
323,8.895878e-01,-1.014911e-02,-7.480344e-03,6.931757e-01
324,8.881413e-01,-1.014486e-02,-7.480440e-03,6.946163e-01
325,8.858360e-01,-1.013800e-02,-7.480488e-03,6.960549e-01
326,8.826965e-01,-1.012855e-02,-7.480457e-03,6.974908e-01
327,8.790015e-01,-1.011734e-02,-7.480339e-03,6.989236e-01
328,8.752124e-01,-1.010581e-02,-7.480172e-03,7.003525e-01
329,8.718382e-01,-1.009552e-02,-7.480008e-03,7.017771e-01
330,8.692888e-01,-1.008776e-02,-7.479897e-03,7.031972e-01
331,8.677847e-01,-1.008318e-02,-7.479828e-03,7.046132e-01
332,8.673627e-01,-1.008187e-02,-7.479780e-03,7.060258e-01
333,8.679391e-01,-1.008354e-02,-7.479728e-03,7.074365e-01
334,8.693558e-01,-1.008774e-02,-7.479669e-03,7.088472e-01
335,8.713875e-01,-1.009378e-02,-7.479619e-03,7.102603e-01
336,8.737468e-01,-1.010082e-02,-7.479575e-03,7.116787e-01
337,8.761047e-01,-1.010786e-02,-7.479548e-03,7.131056e-01
338,8.781091e-01,-1.011386e-02,-7.479533e-03,7.145440e-01
339,8.794048e-01,-1.011772e-02,-7.479505e-03,7.159964e-01
340,8.796973e-01,-1.011854e-02,-7.479451e-03,7.174650e-01
341,8.788902e-01,-1.011600e-02,-7.479329e-03,7.189506e-01
342,8.772470e-01,-1.011086e-02,-7.479122e-03,7.204537e-01
343,8.754195e-01,-1.010516e-02,-7.478904e-03,7.219738e-01
344,8.741934e-01,-1.010130e-02,-7.478721e-03,7.235099e-01
