TimeStep,Temp,PotEnergy,TotEnergy,MeanSqDisp
0,3.496790e-01,-5.918888e-04,-5.441010e-04,5.123475e-03
1,3.487109e-01,-5.917509e-04,-5.440954e-04,1.024225e-02
2,3.470803e-01,-5.915187e-04,-5.440861e-04,1.535154e-02
3,3.447616e-01,-5.911888e-04,-5.440731e-04,2.044637e-02
4,3.417201e-01,-5.907566e-04,-5.440565e-04,2.552149e-02
5,3.379131e-01,-5.902163e-04,-5.440365e-04,3.057132e-02
6,3.332912e-01,-5.895618e-04,-5.440136e-04,3.558979e-02
7,3.278015e-01,-5.887868e-04,-5.439888e-04,4.057033e-02
8,3.213906e-01,-5.878849e-04,-5.439631e-04,4.550575e-02
9,3.140099e-01,-5.868506e-04,-5.439374e-04,5.038819e-02
10,3.056221e-01,-5.856790e-04,-5.439122e-04,5.520909e-02
11,2.962092e-01,-5.843680e-04,-5.438875e-04,5.995915e-02
12,2.857820e-01,-5.829188e-04,-5.438633e-04,6.462837e-02
13,2.743906e-01,-5.813383e-04,-5.438396e-04,6.920615e-02
14,2.621332e-01,-5.796400e-04,-5.438164e-04,7.368137e-02
15,2.491632e-01,-5.778448e-04,-5.437937e-04,7.804267e-02
16,2.356905e-01,-5.759813e-04,-5.437715e-04,8.227867e-02
17,2.219773e-01,-5.740854e-04,-5.437496e-04,8.637835e-02
18,2.083260e-01,-5.721986e-04,-5.437284e-04,9.033142e-02
19,1.950615e-01,-5.703656e-04,-5.437081e-04,9.412871e-02
20,1.825086e-01,-5.686311e-04,-5.436891e-04,9.776254e-02
21,1.709677e-01,-5.670365e-04,-5.436717e-04,1.012270e-01
22,1.606926e-01,-5.656165e-04,-5.436560e-04,1.045184e-01
23,1.518735e-01,-5.643974e-04,-5.436421e-04,1.076349e-01
24,1.446268e-01,-5.633950e-04,-5.436300e-04,1.105772e-01
25,1.389939e-01,-5.626149e-04,-5.436197e-04,1.133478e-01
26,1.349454e-01,-5.620528e-04,-5.436110e-04,1.159512e-01
27,1.323914e-01,-5.616965e-04,-5.436036e-04,1.183938e-01
28,1.311949e-01,-5.615268e-04,-5.435975e-04,1.206831e-01
29,1.311854e-01,-5.615204e-04,-5.435924e-04,1.228276e-01
30,1.321735e-01,-5.616513e-04,-5.435882e-04,1.248368e-01
31,1.339625e-01,-5.618922e-04,-5.435847e-04,1.267205e-01
32,1.363592e-01,-5.622168e-04,-5.435817e-04,1.284886e-01
33,1.391814e-01,-5.626001e-04,-5.435793e-04,1.301510e-01
34,1.422634e-01,-5.630193e-04,-5.435773e-04,1.317173e-01
35,1.454601e-01,-5.634544e-04,-5.435756e-04,1.331966e-01
36,1.486481e-01,-5.638887e-04,-5.435742e-04,1.345975e-01
37,1.517270e-01,-5.643084e-04,-5.435731e-04,1.359279e-01
38,1.546186e-01,-5.647026e-04,-5.435721e-04,1.371949e-01
39,1.572659e-01,-5.650636e-04,-5.435714e-04,1.384049e-01
40,1.596311e-01,-5.653862e-04,-5.435707e-04,1.395636e-01
41,1.616936e-01,-5.656677e-04,-5.435704e-04,1.406758e-01
42,1.634472e-01,-5.659072e-04,-5.435702e-04,1.417457e-01
43,1.648976e-01,-5.661054e-04,-5.435702e-04,1.427768e-01
44,1.660598e-01,-5.662643e-04,-5.435703e-04,1.437719e-01
45,1.669552e-01,-5.663869e-04,-5.435705e-04,1.447336e-01
46,1.676101e-01,-5.664768e-04,-5.435709e-04,1.456636e-01
47,1.680539e-01,-5.665380e-04,-5.435714e-04,1.465633e-01
48,1.683180e-01,-5.665747e-04,-5.435720e-04,1.474341e-01
49,1.684348e-01,-5.665914e-04,-5.435728e-04,1.482765e-01
50,1.684375e-01,-5.665927e-04,-5.435738e-04,1.490913e-01
51,1.683585e-01,-5.665831e-04,-5.435749e-04,1.498789e-01
52,1.682292e-01,-5.665667e-04,-5.435762e-04,1.506396e-01
53,1.680781e-01,-5.665474e-04,-5.435775e-04,1.513735e-01
54,1.679304e-01,-5.665287e-04,-5.435790e-04,1.520809e-01
55,1.678069e-01,-5.665134e-04,-5.435806e-04,1.527620e-01
56,1.677235e-01,-5.665038e-04,-5.435824e-04,1.534169e-01
57,1.676912e-01,-5.665012e-04,-5.435842e-04,1.540458e-01
58,1.677167e-01,-5.665067e-04,-5.435863e-04,1.546492e-01
59,1.678028e-01,-5.665206e-04,-5.435884e-04,1.552273e-01
60,1.679495e-01,-5.665429e-04,-5.435906e-04,1.557805e-01
61,1.681550e-01,-5.665733e-04,-5.435929e-04,1.563094e-01
62,1.684163e-01,-5.666113e-04,-5.435952e-04,1.568144e-01
63,1.687298e-01,-5.666565e-04,-5.435976e-04,1.572961e-01
64,1.690921e-01,-5.667083e-04,-5.435999e-04,1.577552e-01
65,1.694995e-01,-5.667662e-04,-5.436021e-04,1.581922e-01
66,1.699487e-01,-5.668299e-04,-5.436044e-04,1.586078e-01
67,1.704365e-01,-5.668989e-04,-5.436067e-04,1.590028e-01
68,1.709598e-01,-5.669728e-04,-5.436091e-04,1.593777e-01
69,1.715157e-01,-5.670511e-04,-5.436115e-04,1.597335e-01
70,1.721012e-01,-5.671335e-04,-5.436138e-04,1.600708e-01
71,1.727132e-01,-5.672195e-04,-5.436162e-04,1.603904e-01
72,1.733483e-01,-5.673087e-04,-5.436186e-04,1.606931e-01
73,1.740025e-01,-5.674004e-04,-5.436209e-04,1.609798e-01
74,1.746716e-01,-5.674943e-04,-5.436233e-04,1.612511e-01
75,1.753510e-01,-5.675895e-04,-5.436257e-04,1.615080e-01
76,1.760356e-01,-5.676854e-04,-5.436280e-04,1.617512e-01
77,1.767199e-01,-5.677812e-04,-5.436303e-04,1.619816e-01
78,1.773983e-01,-5.678762e-04,-5.436327e-04,1.621999e-01
79,1.780650e-01,-5.679696e-04,-5.436349e-04,1.624069e-01
80,1.787143e-01,-5.680607e-04,-5.436373e-04,1.626034e-01
81,1.793410e-01,-5.681486e-04,-5.436395e-04,1.627901e-01
82,1.799402e-01,-5.682326e-04,-5.436416e-04,1.629676e-01
83,1.805075e-01,-5.683122e-04,-5.436437e-04,1.631367e-01
84,1.810396e-01,-5.683869e-04,-5.436457e-04,1.632979e-01
85,1.815340e-01,-5.684565e-04,-5.436477e-04,1.634518e-01
86,1.819893e-01,-5.685207e-04,-5.436497e-04,1.635989e-01
87,1.824051e-01,-5.685793e-04,-5.436515e-04,1.637395e-01
88,1.827820e-01,-5.686325e-04,-5.436532e-04,1.638742e-01
89,1.831212e-01,-5.686806e-04,-5.436549e-04,1.640033e-01
90,1.834245e-01,-5.687237e-04,-5.436566e-04,1.641270e-01
91,1.836936e-01,-5.687621e-04,-5.436582e-04,1.642456e-01
92,1.839307e-01,-5.687961e-04,-5.436598e-04,1.643594e-01
93,1.841377e-01,-5.688260e-04,-5.436614e-04,1.644684e-01
94,1.843169e-01,-5.688519e-04,-5.436628e-04,1.645729e-01
95,1.844707e-01,-5.688742e-04,-5.436641e-04,1.646730e-01
96,1.846018e-01,-5.688934e-04,-5.436654e-04,1.647688e-01
97,1.847134e-01,-5.689099e-04,-5.436667e-04,1.648603e-01
98,1.848094e-01,-5.689242e-04,-5.436678e-04,1.649475e-01
99,1.848941e-01,-5.689369e-04,-5.436689e-04,1.650305e-01
100,3.497154e-01,-5.688994e-04,-5.211066e-04,1.651773e-01
101,3.486522e-01,-5.687549e-04,-5.211074e-04,1.653941e-01
102,3.468410e-01,-5.685077e-04,-5.211078e-04,1.656794e-01
103,3.443277e-01,-5.681641e-04,-5.211077e-04,1.660306e-01
104,3.411736e-01,-5.677326e-04,-5.211072e-04,1.664441e-01
105,3.374542e-01,-5.672234e-04,-5.211063e-04,1.669156e-01
106,3.332573e-01,-5.666486e-04,-5.211051e-04,1.674401e-01
107,3.286815e-01,-5.660218e-04,-5.211036e-04,1.680120e-01
108,3.238323e-01,-5.653572e-04,-5.211017e-04,1.686254e-01
109,3.188192e-01,-5.646700e-04,-5.210996e-04,1.692742e-01
110,3.137516e-01,-5.639752e-04,-5.210974e-04,1.699520e-01
111,3.087348e-01,-5.632873e-04,-5.210950e-04,1.706526e-01
112,3.038667e-01,-5.626197e-04,-5.210927e-04,1.713700e-01
113,2.992342e-01,-5.619844e-04,-5.210905e-04,1.720984e-01
114,2.949111e-01,-5.613915e-04,-5.210884e-04,1.728326e-01
115,2.909562e-01,-5.608489e-04,-5.210863e-04,1.735676e-01
116,2.874118e-01,-5.603626e-04,-5.210843e-04,1.742993e-01
117,2.843046e-01,-5.599360e-04,-5.210825e-04,1.750238e-01
118,2.816449e-01,-5.595709e-04,-5.210807e-04,1.757382e-01
119,2.794286e-01,-5.592665e-04,-5.210793e-04,1.764398e-01
120,2.776381e-01,-5.590206e-04,-5.210781e-04,1.771267e-01
121,2.762452e-01,-5.588294e-04,-5.210772e-04,1.777974e-01
122,2.752141e-01,-5.586877e-04,-5.210765e-04,1.784510e-01
123,2.745041e-01,-5.585901e-04,-5.210759e-04,1.790869e-01
124,2.740730e-01,-5.585306e-04,-5.210752e-04,1.797048e-01
125,2.738783e-01,-5.585035e-04,-5.210748e-04,1.803049e-01
126,2.738786e-01,-5.585032e-04,-5.210745e-04,1.808873e-01
127,2.740343e-01,-5.585242e-04,-5.210742e-04,1.814526e-01
128,2.743081e-01,-5.585614e-04,-5.210739e-04,1.820013e-01
129,2.746657e-01,-5.586100e-04,-5.210737e-04,1.825342e-01
130,2.750773e-01,-5.586662e-04,-5.210737e-04,1.830521e-01
131,2.755184e-01,-5.587265e-04,-5.210736e-04,1.835556e-01
132,2.759700e-01,-5.587882e-04,-5.210736e-04,1.840456e-01
133,2.764187e-01,-5.588497e-04,-5.210738e-04,1.845228e-01
134,2.768547e-01,-5.589095e-04,-5.210740e-04,1.849879e-01
135,2.772709e-01,-5.589666e-04,-5.210743e-04,1.854416e-01
136,2.776613e-01,-5.590203e-04,-5.210746e-04,1.858846e-01
137,2.780202e-01,-5.590696e-04,-5.210749e-04,1.863173e-01
138,2.783423e-01,-5.591139e-04,-5.210751e-04,1.867404e-01
139,2.786229e-01,-5.591525e-04,-5.210753e-04,1.871543e-01
140,2.788579e-01,-5.591848e-04,-5.210755e-04,1.875595e-01
141,2.790441e-01,-5.592104e-04,-5.210757e-04,1.879564e-01
142,2.791794e-01,-5.592292e-04,-5.210760e-04,1.883452e-01
143,2.792630e-01,-5.592410e-04,-5.210764e-04,1.887262e-01
144,2.792961e-01,-5.592458e-04,-5.210767e-04,1.890996e-01
145,2.792813e-01,-5.592442e-04,-5.210771e-04,1.894655e-01
146,2.792231e-01,-5.592366e-04,-5.210774e-04,1.898240e-01
147,2.791267e-01,-5.592237e-04,-5.210778e-04,1.901752e-01
148,2.789979e-01,-5.592065e-04,-5.210782e-04,1.905191e-01
149,2.788423e-01,-5.591857e-04,-5.210786e-04,1.908555e-01
150,2.786648e-01,-5.591618e-04,-5.210790e-04,1.911845e-01
151,2.784697e-01,-5.591355e-04,-5.210793e-04,1.915060e-01
152,2.782616e-01,-5.591074e-04,-5.210797e-04,1.918198e-01
153,2.780462e-01,-5.590783e-04,-5.210800e-04,1.921258e-01
154,2.778315e-01,-5.590493e-04,-5.210803e-04,1.924239e-01
155,2.776287e-01,-5.590219e-04,-5.210806e-04,1.927140e-01
156,2.774515e-01,-5.589978e-04,-5.210808e-04,1.929959e-01
157,2.773149e-01,-5.589793e-04,-5.210810e-04,1.932694e-01
158,2.772330e-01,-5.589684e-04,-5.210812e-04,1.935345e-01
159,2.772169e-01,-5.589665e-04,-5.210815e-04,1.937912e-01
160,2.772737e-01,-5.589746e-04,-5.210819e-04,1.940395e-01
161,2.774052e-01,-5.589930e-04,-5.210823e-04,1.942794e-01
162,2.776086e-01,-5.590214e-04,-5.210829e-04,1.945112e-01
163,2.778770e-01,-5.590587e-04,-5.210835e-04,1.947351e-01
164,2.782000e-01,-5.591034e-04,-5.210841e-04,1.949515e-01
165,2.785650e-01,-5.591540e-04,-5.210848e-04,1.951608e-01
166,2.789587e-01,-5.592083e-04,-5.210853e-04,1.953633e-01
167,2.793680e-01,-5.592647e-04,-5.210858e-04,1.955595e-01
168,2.797805e-01,-5.593216e-04,-5.210863e-04,1.957499e-01
169,2.801851e-01,-5.593774e-04,-5.210868e-04,1.959350e-01
170,2.805721e-01,-5.594309e-04,-5.210874e-04,1.961152e-01
171,2.809337e-01,-5.594809e-04,-5.210880e-04,1.962908e-01
172,2.812637e-01,-5.595265e-04,-5.210885e-04,1.964624e-01
173,2.815582e-01,-5.595674e-04,-5.210892e-04,1.966301e-01
174,2.818159e-01,-5.596033e-04,-5.210898e-04,1.967944e-01
175,2.820382e-01,-5.596342e-04,-5.210904e-04,1.969555e-01
176,2.822290e-01,-5.596607e-04,-5.210908e-04,1.971135e-01
177,2.823943e-01,-5.596837e-04,-5.210911e-04,1.972687e-01
178,2.825408e-01,-5.597041e-04,-5.210916e-04,1.974212e-01
179,2.826754e-01,-5.597230e-04,-5.210920e-04,1.975710e-01
180,2.828034e-01,-5.597409e-04,-5.210925e-04,1.977184e-01
181,2.829279e-01,-5.597583e-04,-5.210929e-04,1.978634e-01
182,2.830489e-01,-5.597752e-04,-5.210932e-04,1.980060e-01
183,2.831639e-01,-5.597913e-04,-5.210937e-04,1.981466e-01
184,2.832692e-01,-5.598062e-04,-5.210942e-04,1.982850e-01
185,2.833609e-01,-5.598193e-04,-5.210947e-04,1.984214e-01
186,2.834366e-01,-5.598301e-04,-5.210952e-04,1.985560e-01
187,2.834959e-01,-5.598387e-04,-5.210957e-04,1.986888e-01
188,2.835399e-01,-5.598452e-04,-5.210961e-04,1.988197e-01
189,2.835706e-01,-5.598497e-04,-5.210964e-04,1.989490e-01
190,2.835902e-01,-5.598527e-04,-5.210968e-04,1.990766e-01
191,2.836001e-01,-5.598545e-04,-5.210972e-04,1.992025e-01
192,2.836006e-01,-5.598550e-04,-5.210976e-04,1.993268e-01
193,2.835908e-01,-5.598542e-04,-5.210981e-04,1.994494e-01
194,2.835689e-01,-5.598518e-04,-5.210987e-04,1.995703e-01
195,2.835330e-01,-5.598474e-04,-5.210993e-04,1.996896e-01
196,2.834816e-01,-5.598409e-04,-5.210998e-04,1.998072e-01
197,2.834143e-01,-5.598322e-04,-5.211003e-04,1.999230e-01
198,2.833325e-01,-5.598214e-04,-5.211007e-04,2.000369e-01
199,2.832392e-01,-5.598092e-04,-5.211012e-04,2.001489e-01
200,3.496916e-01,-5.597674e-04,-5.119779e-04,2.002837e-01
201,3.489942e-01,-5.596721e-04,-5.119780e-04,2.004411e-01
202,3.479340e-01,-5.595271e-04,-5.119778e-04,2.006203e-01
203,3.465498e-01,-5.593376e-04,-5.119775e-04,2.008200e-01
204,3.448898e-01,-5.591102e-04,-5.119769e-04,2.010388e-01
205,3.430091e-01,-5.588524e-04,-5.119762e-04,2.012749e-01
206,3.409670e-01,-5.585725e-04,-5.119754e-04,2.015263e-01
207,3.388239e-01,-5.582789e-04,-5.119746e-04,2.017908e-01
208,3.366396e-01,-5.579797e-04,-5.119739e-04,2.020661e-01
209,3.344710e-01,-5.576825e-04,-5.119731e-04,2.023500e-01
210,3.323718e-01,-5.573949e-04,-5.119724e-04,2.026403e-01
211,3.303910e-01,-5.571234e-04,-5.119716e-04,2.029348e-01
212,3.285720e-01,-5.568740e-04,-5.119707e-04,2.032315e-01
213,3.269505e-01,-5.566516e-04,-5.119700e-04,2.035286e-01
214,3.255516e-01,-5.564597e-04,-5.119692e-04,2.038246e-01
215,3.243877e-01,-5.563001e-04,-5.119687e-04,2.041181e-01
216,3.234572e-01,-5.561726e-04,-5.119683e-04,2.044081e-01
217,3.227454e-01,-5.560751e-04,-5.119681e-04,2.046938e-01
218,3.222277e-01,-5.560041e-04,-5.119679e-04,2.049746e-01
219,3.218745e-01,-5.559557e-04,-5.119678e-04,2.052502e-01
220,3.216554e-01,-5.559256e-04,-5.119676e-04,2.055203e-01
221,3.215438e-01,-5.559103e-04,-5.119676e-04,2.057849e-01
222,3.215178e-01,-5.559066e-04,-5.119674e-04,2.060440e-01
223,3.215603e-01,-5.559122e-04,-5.119672e-04,2.062977e-01
224,3.216568e-01,-5.559253e-04,-5.119671e-04,2.065463e-01
225,3.217931e-01,-5.559439e-04,-5.119670e-04,2.067898e-01
226,3.219542e-01,-5.559659e-04,-5.119671e-04,2.070285e-01
227,3.221245e-01,-5.559893e-04,-5.119671e-04,2.072628e-01
228,3.222883e-01,-5.560117e-04,-5.119672e-04,2.074929e-01
229,3.224308e-01,-5.560312e-04,-5.119672e-04,2.077190e-01
230,3.225387e-01,-5.560458e-04,-5.119671e-04,2.079414e-01
231,3.226003e-01,-5.560540e-04,-5.119669e-04,2.081603e-01
232,3.226066e-01,-5.560546e-04,-5.119666e-04,2.083759e-01
233,3.225519e-01,-5.560468e-04,-5.119662e-04,2.085882e-01
234,3.224353e-01,-5.560304e-04,-5.119658e-04,2.087972e-01
235,3.222616e-01,-5.560063e-04,-5.119655e-04,2.090030e-01
236,3.220420e-01,-5.559761e-04,-5.119653e-04,2.092053e-01
237,3.217932e-01,-5.559420e-04,-5.119651e-04,2.094041e-01
238,3.215361e-01,-5.559066e-04,-5.119649e-04,2.095991e-01
239,3.212934e-01,-5.558731e-04,-5.119646e-04,2.097901e-01
240,3.210865e-01,-5.558446e-04,-5.119643e-04,2.099770e-01
241,3.209330e-01,-5.558235e-04,-5.119642e-04,2.101595e-01
242,3.208450e-01,-5.558115e-04,-5.119643e-04,2.103376e-01
243,3.208282e-01,-5.558094e-04,-5.119644e-04,2.105113e-01
244,3.208818e-01,-5.558169e-04,-5.119646e-04,2.106807e-01
245,3.209995e-01,-5.558332e-04,-5.119648e-04,2.108460e-01
246,3.211701e-01,-5.558567e-04,-5.119650e-04,2.110072e-01
247,3.213804e-01,-5.558857e-04,-5.119653e-04,2.111648e-01
248,3.216159e-01,-5.559182e-04,-5.119656e-04,2.113189e-01
249,3.218628e-01,-5.559524e-04,-5.119661e-04,2.114700e-01
250,3.221077e-01,-5.559863e-04,-5.119665e-04,2.116184e-01
251,3.223374e-01,-5.560179e-04,-5.119667e-04,2.117644e-01
252,3.225380e-01,-5.560454e-04,-5.119668e-04,2.119083e-01
253,3.226954e-01,-5.560670e-04,-5.119669e-04,2.120503e-01
254,3.227959e-01,-5.560809e-04,-5.119670e-04,2.121908e-01
255,3.228285e-01,-5.560855e-04,-5.119672e-04,2.123299e-01
256,3.227872e-01,-5.560801e-04,-5.119674e-04,2.124675e-01
257,3.226731e-01,-5.560647e-04,-5.119676e-04,2.126039e-01
258,3.224951e-01,-5.560405e-04,-5.119677e-04,2.127388e-01
259,3.222695e-01,-5.560097e-04,-5.119678e-04,2.128720e-01
260,3.220165e-01,-5.559752e-04,-5.119678e-04,2.130034e-01
261,3.217575e-01,-5.559397e-04,-5.119678e-04,2.131328e-01
262,3.215103e-01,-5.559059e-04,-5.119677e-04,2.132598e-01
263,3.212869e-01,-5.558752e-04,-5.119676e-04,2.133842e-01
264,3.210925e-01,-5.558485e-04,-5.119674e-04,2.135059e-01
265,3.209265e-01,-5.558257e-04,-5.119673e-04,2.136247e-01
266,3.207856e-01,-5.558063e-04,-5.119672e-04,2.137403e-01
267,3.206661e-01,-5.557900e-04,-5.119672e-04,2.138529e-01
268,3.205665e-01,-5.557766e-04,-5.119674e-04,2.139621e-01
269,3.204890e-01,-5.557662e-04,-5.119676e-04,2.140680e-01
270,3.204387e-01,-5.557599e-04,-5.119682e-04,2.141704e-01
271,3.204231e-01,-5.557584e-04,-5.119688e-04,2.142694e-01
272,3.204512e-01,-5.557629e-04,-5.119695e-04,2.143648e-01
273,3.205317e-01,-5.557746e-04,-5.119702e-04,2.144567e-01
274,3.206723e-01,-5.557946e-04,-5.119710e-04,2.145452e-01
275,3.208771e-01,-5.558234e-04,-5.119718e-04,2.146303e-01
276,3.211452e-01,-5.558610e-04,-5.119727e-04,2.147123e-01
277,3.214690e-01,-5.559064e-04,-5.119738e-04,2.147913e-01
278,3.218349e-01,-5.559574e-04,-5.119749e-04,2.148678e-01
279,3.222245e-01,-5.560117e-04,-5.119760e-04,2.149421e-01
280,3.226173e-01,-5.560665e-04,-5.119770e-04,2.150146e-01
281,3.229927e-01,-5.561189e-04,-5.119782e-04,2.150857e-01
282,3.233318e-01,-5.561665e-04,-5.119794e-04,2.151557e-01
283,3.236188e-01,-5.562068e-04,-5.119805e-04,2.152250e-01
284,3.238427e-01,-5.562385e-04,-5.119815e-04,2.152939e-01
285,3.239982e-01,-5.562608e-04,-5.119826e-04,2.153626e-01
286,3.240868e-01,-5.562739e-04,-5.119836e-04,2.154311e-01
287,3.241162e-01,-5.562790e-04,-5.119847e-04,2.154995e-01
288,3.240993e-01,-5.562775e-04,-5.119855e-04,2.155679e-01
289,3.240520e-01,-5.562717e-04,-5.119861e-04,2.156360e-01
290,3.239915e-01,-5.562639e-04,-5.119866e-04,2.157039e-01
291,3.239341e-01,-5.562565e-04,-5.119871e-04,2.157713e-01
292,3.238946e-01,-5.562516e-04,-5.119876e-04,2.158381e-01
293,3.238861e-01,-5.562510e-04,-5.119882e-04,2.159042e-01
294,3.239201e-01,-5.562563e-04,-5.119888e-04,2.159696e-01
295,3.240061e-01,-5.562686e-04,-5.119894e-04,2.160342e-01
296,3.241508e-01,-5.562890e-04,-5.119900e-04,2.160981e-01
297,3.243568e-01,-5.563177e-04,-5.119905e-04,2.161612e-01
298,3.246202e-01,-5.563543e-04,-5.119911e-04,2.162239e-01
299,3.249301e-01,-5.563971e-04,-5.119915e-04,2.162863e-01
300,3.252692e-01,-5.564439e-04,-5.119920e-04,2.163486e-01
301,3.256163e-01,-5.564918e-04,-5.119925e-04,2.164113e-01
302,3.259509e-01,-5.565378e-04,-5.119928e-04,2.164747e-01
303,3.262551e-01,-5.565796e-04,-5.119930e-04,2.165391e-01
304,3.265164e-01,-5.566155e-04,-5.119932e-04,2.166047e-01
305,3.267263e-01,-5.566444e-04,-5.119934e-04,2.166719e-01
306,3.268803e-01,-5.566656e-04,-5.119936e-04,2.167408e-01
307,3.269755e-01,-5.566789e-04,-5.119938e-04,2.168117e-01
308,3.270099e-01,-5.566838e-04,-5.119940e-04,2.168846e-01
309,3.269813e-01,-5.566801e-04,-5.119942e-04,2.169596e-01
310,3.268867e-01,-5.566674e-04,-5.119944e-04,2.170367e-01
311,3.267224e-01,-5.566451e-04,-5.119947e-04,2.171159e-01
312,3.264850e-01,-5.566129e-04,-5.119949e-04,2.171971e-01
313,3.261728e-01,-5.565703e-04,-5.119949e-04,2.172802e-01
314,3.257871e-01,-5.565176e-04,-5.119949e-04,2.173648e-01
315,3.253344e-01,-5.564556e-04,-5.119948e-04,2.174507e-01
316,3.248263e-01,-5.563860e-04,-5.119946e-04,2.175375e-01
317,3.242798e-01,-5.563111e-04,-5.119944e-04,2.176247e-01
318,3.237163e-01,-5.562338e-04,-5.119941e-04,2.177118e-01
319,3.231591e-01,-5.561575e-04,-5.119940e-04,2.177984e-01
320,3.226308e-01,-5.560852e-04,-5.119939e-04,2.178839e-01
321,3.221506e-01,-5.560196e-04,-5.119939e-04,2.179678e-01
322,3.217334e-01,-5.559626e-04,-5.119939e-04,2.180497e-01
323,3.213893e-01,-5.559155e-04,-5.119939e-04,2.181291e-01
324,3.211247e-01,-5.558794e-04,-5.119939e-04,2.182058e-01
325,3.209431e-01,-5.558547e-04,-5.119941e-04,2.182796e-01
326,3.208458e-01,-5.558417e-04,-5.119944e-04,2.183502e-01
327,3.208312e-01,-5.558401e-04,-5.119948e-04,2.184177e-01
328,3.208955e-01,-5.558495e-04,-5.119953e-04,2.184819e-01
329,3.210323e-01,-5.558688e-04,-5.119960e-04,2.185431e-01
330,3.212333e-01,-5.558969e-04,-5.119966e-04,2.186012e-01
331,3.214888e-01,-5.559322e-04,-5.119969e-04,2.186565e-01
332,3.217887e-01,-5.559733e-04,-5.119971e-04,2.187094e-01
333,3.221230e-01,-5.560190e-04,-5.119971e-04,2.187599e-01
334,3.224821e-01,-5.560680e-04,-5.119970e-04,2.188085e-01
335,3.228567e-01,-5.561191e-04,-5.119970e-04,2.188556e-01
336,3.232380e-01,-5.561712e-04,-5.119969e-04,2.189014e-01
337,3.236167e-01,-5.562229e-04,-5.119968e-04,2.189463e-01
338,3.239831e-01,-5.562730e-04,-5.119968e-04,2.189907e-01
339,3.243263e-01,-5.563198e-04,-5.119968e-04,2.190349e-01
340,3.246338e-01,-5.563618e-04,-5.119967e-04,2.190793e-01
341,3.248917e-01,-5.563969e-04,-5.119966e-04,2.191242e-01
342,3.250855e-01,-5.564232e-04,-5.119965e-04,2.191697e-01
343,3.252023e-01,-5.564391e-04,-5.119964e-04,2.192161e-01
344,3.252340e-01,-5.564433e-04,-5.119962e-04,2.192636e-01
