TimeStep,Temp,PotEnergy,TotEnergy,MeanSqDisp
0,2.497722e-01,-5.919020e-04,-5.577677e-04,4.330127e-03
1,2.490861e-01,-5.918042e-04,-5.577636e-04,8.656307e-03
2,2.479346e-01,-5.916401e-04,-5.577569e-04,1.297454e-02
3,2.463058e-01,-5.914081e-04,-5.577475e-04,1.728071e-02
4,2.441842e-01,-5.911061e-04,-5.577355e-04,2.157055e-02
5,2.415510e-01,-5.907316e-04,-5.577208e-04,2.583958e-02
6,2.383848e-01,-5.902819e-04,-5.577038e-04,3.008308e-02
7,2.346631e-01,-5.897541e-04,-5.576846e-04,3.429601e-02
8,2.303637e-01,-5.891457e-04,-5.576638e-04,3.847299e-02
9,2.254669e-01,-5.884550e-04,-5.576423e-04,4.260829e-02
10,2.199576e-01,-5.876804e-04,-5.576206e-04,4.669576e-02
11,2.138292e-01,-5.868212e-04,-5.575989e-04,5.072886e-02
12,2.070861e-01,-5.858783e-04,-5.575775e-04,5.470065e-02
13,1.997485e-01,-5.848547e-04,-5.575567e-04,5.860381e-02
14,1.918554e-01,-5.837560e-04,-5.575367e-04,6.243072e-02
15,1.834687e-01,-5.825904e-04,-5.575172e-04,6.617352e-02
16,1.746753e-01,-5.813698e-04,-5.574984e-04,6.982424e-02
17,1.655877e-01,-5.801095e-04,-5.574800e-04,7.337495e-02
18,1.563427e-01,-5.788282e-04,-5.574621e-04,7.681794e-02
19,1.470972e-01,-5.775475e-04,-5.574449e-04,8.014590e-02
20,1.380213e-01,-5.762906e-04,-5.574284e-04,8.335217e-02
21,1.292892e-01,-5.750816e-04,-5.574127e-04,8.643090e-02
22,1.210701e-01,-5.739436e-04,-5.573979e-04,8.937728e-02
23,1.135174e-01,-5.728976e-04,-5.573841e-04,9.218768e-02
24,1.067604e-01,-5.719615e-04,-5.573714e-04,9.485977e-02
25,1.008981e-01,-5.711488e-04,-5.573599e-04,9.739257e-02
26,9.599432e-02,-5.704683e-04,-5.573495e-04,9.978646e-02
27,9.207744e-02,-5.699238e-04,-5.573403e-04,1.020431e-01
28,8.914115e-02,-5.695145e-04,-5.573323e-04,1.041656e-01
29,8.714816e-02,-5.692350e-04,-5.573252e-04,1.061578e-01
30,8.603507e-02,-5.690767e-04,-5.573190e-04,1.080249e-01
31,8.571823e-02,-5.690280e-04,-5.573136e-04,1.097727e-01
32,8.609981e-02,-5.690754e-04,-5.573089e-04,1.114074e-01
33,8.707372e-02,-5.692045e-04,-5.573048e-04,1.129362e-01
34,8.853090e-02,-5.694001e-04,-5.573013e-04,1.143659e-01
35,9.036390e-02,-5.696476e-04,-5.572983e-04,1.157040e-01
36,9.247047e-02,-5.699330e-04,-5.572958e-04,1.169575e-01
37,9.475632e-02,-5.702433e-04,-5.572937e-04,1.181336e-01
38,9.713692e-02,-5.705669e-04,-5.572919e-04,1.192391e-01
39,9.953862e-02,-5.708936e-04,-5.572905e-04,1.202803e-01
40,1.018991e-01,-5.712151e-04,-5.572894e-04,1.212634e-01
41,1.041673e-01,-5.715241e-04,-5.572885e-04,1.221939e-01
42,1.063028e-01,-5.718153e-04,-5.572878e-04,1.230770e-01
43,1.082754e-01,-5.720844e-04,-5.572873e-04,1.239173e-01
44,1.100637e-01,-5.723285e-04,-5.572870e-04,1.247189e-01
45,1.116545e-01,-5.725457e-04,-5.572868e-04,1.254854e-01
46,1.130416e-01,-5.727353e-04,-5.572868e-04,1.262200e-01
47,1.142249e-01,-5.728972e-04,-5.572870e-04,1.269254e-01
48,1.152096e-01,-5.730321e-04,-5.572873e-04,1.276038e-01
49,1.160053e-01,-5.731414e-04,-5.572879e-04,1.282571e-01
50,1.166256e-01,-5.732268e-04,-5.572886e-04,1.288868e-01
51,1.170872e-01,-5.732908e-04,-5.572894e-04,1.294940e-01
52,1.174093e-01,-5.733358e-04,-5.572904e-04,1.300798e-01
53,1.176127e-01,-5.733647e-04,-5.572915e-04,1.306447e-01
54,1.177193e-01,-5.733805e-04,-5.572927e-04,1.311893e-01
55,1.177507e-01,-5.733861e-04,-5.572941e-04,1.317137e-01
56,1.177282e-01,-5.733845e-04,-5.572955e-04,1.322182e-01
57,1.176715e-01,-5.733782e-04,-5.572970e-04,1.327029e-01
58,1.175989e-01,-5.733699e-04,-5.572986e-04,1.331679e-01
59,1.175264e-01,-5.733617e-04,-5.573003e-04,1.336130e-01
60,1.174679e-01,-5.733554e-04,-5.573020e-04,1.340385e-01
61,1.174347e-01,-5.733526e-04,-5.573038e-04,1.344443e-01
62,1.174361e-01,-5.733546e-04,-5.573055e-04,1.348304e-01
63,1.174792e-01,-5.733623e-04,-5.573074e-04,1.351971e-01
64,1.175686e-01,-5.733765e-04,-5.573093e-04,1.355445e-01
65,1.177073e-01,-5.733974e-04,-5.573113e-04,1.358728e-01
66,1.178963e-01,-5.734253e-04,-5.573134e-04,1.361823e-01
67,1.181348e-01,-5.734601e-04,-5.573155e-04,1.364735e-01
68,1.184208e-01,-5.735013e-04,-5.573177e-04,1.367467e-01
69,1.187511e-01,-5.735487e-04,-5.573200e-04,1.370024e-01
70,1.191215e-01,-5.736015e-04,-5.573222e-04,1.372412e-01
71,1.195271e-01,-5.736593e-04,-5.573245e-04,1.374636e-01
72,1.199627e-01,-5.737211e-04,-5.573267e-04,1.376703e-01
73,1.204226e-01,-5.737861e-04,-5.573289e-04,1.378619e-01
74,1.209012e-01,-5.738536e-04,-5.573311e-04,1.380390e-01
75,1.213926e-01,-5.739229e-04,-5.573332e-04,1.382023e-01
76,1.218915e-01,-5.739933e-04,-5.573353e-04,1.383525e-01
77,1.223926e-01,-5.740638e-04,-5.573375e-04,1.384903e-01
78,1.228913e-01,-5.741340e-04,-5.573395e-04,1.386163e-01
79,1.233837e-01,-5.742034e-04,-5.573415e-04,1.387311e-01
80,1.238667e-01,-5.742714e-04,-5.573435e-04,1.388354e-01
81,1.243381e-01,-5.743377e-04,-5.573455e-04,1.389298e-01
82,1.247968e-01,-5.744023e-04,-5.573473e-04,1.390148e-01
83,1.252425e-01,-5.744649e-04,-5.573491e-04,1.390910e-01
84,1.256755e-01,-5.745259e-04,-5.573509e-04,1.391589e-01
85,1.260968e-01,-5.745853e-04,-5.573527e-04,1.392189e-01
86,1.265078e-01,-5.746433e-04,-5.573545e-04,1.392716e-01
87,1.269098e-01,-5.747000e-04,-5.573563e-04,1.393173e-01
88,1.273040e-01,-5.747557e-04,-5.573581e-04,1.393566e-01
89,1.276913e-01,-5.748103e-04,-5.573598e-04,1.393897e-01
90,1.280720e-01,-5.748640e-04,-5.573615e-04,1.394172e-01
91,1.284460e-01,-5.749168e-04,-5.573631e-04,1.394395e-01
92,1.288128e-01,-5.749685e-04,-5.573647e-04,1.394569e-01
93,1.291715e-01,-5.750191e-04,-5.573663e-04,1.394698e-01
94,1.295207e-01,-5.750683e-04,-5.573678e-04,1.394786e-01
95,1.298593e-01,-5.751161e-04,-5.573693e-04,1.394836e-01
96,1.301861e-01,-5.751623e-04,-5.573708e-04,1.394853e-01
97,1.305002e-01,-5.752066e-04,-5.573722e-04,1.394840e-01
98,1.308007e-01,-5.752491e-04,-5.573736e-04,1.394800e-01
99,1.310872e-01,-5.752895e-04,-5.573749e-04,1.394736e-01
100,2.501474e-01,-5.753112e-04,-5.411256e-04,1.394943e-01
101,2.498217e-01,-5.752679e-04,-5.411268e-04,1.395769e-01
102,2.490334e-01,-5.751609e-04,-5.411276e-04,1.397207e-01
103,2.477993e-01,-5.749925e-04,-5.411278e-04,1.399243e-01
104,2.461431e-01,-5.747661e-04,-5.411277e-04,1.401857e-01
105,2.440946e-01,-5.744858e-04,-5.411274e-04,1.405022e-01
106,2.416909e-01,-5.741566e-04,-5.411267e-04,1.408705e-01
107,2.389751e-01,-5.737845e-04,-5.411257e-04,1.412868e-01
108,2.359966e-01,-5.733761e-04,-5.411244e-04,1.417469e-01
109,2.328098e-01,-5.729390e-04,-5.411228e-04,1.422462e-01
110,2.294724e-01,-5.724812e-04,-5.411211e-04,1.427801e-01
111,2.260443e-01,-5.720108e-04,-5.411192e-04,1.433434e-01
112,2.225845e-01,-5.715360e-04,-5.411172e-04,1.439314e-01
113,2.191500e-01,-5.710647e-04,-5.411153e-04,1.445390e-01
114,2.157934e-01,-5.706041e-04,-5.411134e-04,1.451614e-01
115,2.125622e-01,-5.701607e-04,-5.411116e-04,1.457940e-01
116,2.094974e-01,-5.697401e-04,-5.411098e-04,1.464326e-01
117,2.066340e-01,-5.693470e-04,-5.411081e-04,1.470731e-01
118,2.040000e-01,-5.689854e-04,-5.411064e-04,1.477119e-01
119,2.016173e-01,-5.686581e-04,-5.411047e-04,1.483457e-01
120,1.995013e-01,-5.683673e-04,-5.411031e-04,1.489716e-01
121,1.976610e-01,-5.681142e-04,-5.411015e-04,1.495872e-01
122,1.960991e-01,-5.678993e-04,-5.411000e-04,1.501906e-01
123,1.948121e-01,-5.677221e-04,-5.410987e-04,1.507800e-01
124,1.937905e-01,-5.675813e-04,-5.410976e-04,1.513542e-01
125,1.930191e-01,-5.674749e-04,-5.410965e-04,1.519123e-01
126,1.924782e-01,-5.674001e-04,-5.410957e-04,1.524537e-01
127,1.921442e-01,-5.673537e-04,-5.410949e-04,1.529783e-01
128,1.919907e-01,-5.673321e-04,-5.410943e-04,1.534859e-01
129,1.919899e-01,-5.673316e-04,-5.410939e-04,1.539768e-01
130,1.921136e-01,-5.673482e-04,-5.410936e-04,1.544515e-01
131,1.923341e-01,-5.673781e-04,-5.410934e-04,1.549103e-01
132,1.926257e-01,-5.674179e-04,-5.410933e-04,1.553539e-01
133,1.929647e-01,-5.674643e-04,-5.410934e-04,1.557831e-01
134,1.933299e-01,-5.675143e-04,-5.410935e-04,1.561985e-01
135,1.937032e-01,-5.675656e-04,-5.410937e-04,1.566008e-01
136,1.940693e-01,-5.676159e-04,-5.410941e-04,1.569907e-01
137,1.944157e-01,-5.676636e-04,-5.410944e-04,1.573690e-01
138,1.947331e-01,-5.677074e-04,-5.410948e-04,1.577362e-01
139,1.950153e-01,-5.677463e-04,-5.410952e-04,1.580929e-01
140,1.952588e-01,-5.677802e-04,-5.410957e-04,1.584396e-01
141,1.954628e-01,-5.678086e-04,-5.410963e-04,1.587767e-01
142,1.956288e-01,-5.678319e-04,-5.410969e-04,1.591047e-01
143,1.957598e-01,-5.678504e-04,-5.410975e-04,1.594237e-01
144,1.958595e-01,-5.678648e-04,-5.410982e-04,1.597341e-01
145,1.959324e-01,-5.678755e-04,-5.410990e-04,1.600361e-01
146,1.959829e-01,-5.678831e-04,-5.410997e-04,1.603298e-01
147,1.960147e-01,-5.678882e-04,-5.411004e-04,1.606154e-01
148,1.960317e-01,-5.678912e-04,-5.411011e-04,1.608929e-01
149,1.960369e-01,-5.678927e-04,-5.411019e-04,1.611625e-01
150,1.960335e-01,-5.678931e-04,-5.411028e-04,1.614242e-01
151,1.960246e-01,-5.678927e-04,-5.411036e-04,1.616781e-01
152,1.960137e-01,-5.678920e-04,-5.411044e-04,1.619242e-01
153,1.960053e-01,-5.678917e-04,-5.411052e-04,1.621626e-01
154,1.960046e-01,-5.678925e-04,-5.411062e-04,1.623932e-01
155,1.960176e-01,-5.678952e-04,-5.411071e-04,1.626160e-01
156,1.960513e-01,-5.679006e-04,-5.411078e-04,1.628312e-01
157,1.961124e-01,-5.679095e-04,-5.411085e-04,1.630388e-01
158,1.962072e-01,-5.679231e-04,-5.411091e-04,1.632388e-01
159,1.963404e-01,-5.679419e-04,-5.411096e-04,1.634314e-01
160,1.965142e-01,-5.679663e-04,-5.411103e-04,1.636168e-01
161,1.967278e-01,-5.679961e-04,-5.411109e-04,1.637953e-01
162,1.969769e-01,-5.680308e-04,-5.411116e-04,1.639670e-01
163,1.972538e-01,-5.680694e-04,-5.411123e-04,1.641324e-01
164,1.975489e-01,-5.681104e-04,-5.411130e-04,1.642919e-01
165,1.978512e-01,-5.681525e-04,-5.411138e-04,1.644457e-01
166,1.981503e-01,-5.681942e-04,-5.411146e-04,1.645944e-01
167,1.984367e-01,-5.682341e-04,-5.411154e-04,1.647383e-01
168,1.987032e-01,-5.682712e-04,-5.411161e-04,1.648777e-01
169,1.989445e-01,-5.683048e-04,-5.411167e-04,1.650131e-01
170,1.991574e-01,-5.683344e-04,-5.411172e-04,1.651447e-01
171,1.993408e-01,-5.683599e-04,-5.411176e-04,1.652727e-01
172,1.994950e-01,-5.683815e-04,-5.411181e-04,1.653974e-01
173,1.996216e-01,-5.683992e-04,-5.411186e-04,1.655190e-01
174,1.997233e-01,-5.684135e-04,-5.411190e-04,1.656376e-01
175,1.998035e-01,-5.684249e-04,-5.411194e-04,1.657533e-01
176,1.998658e-01,-5.684336e-04,-5.411196e-04,1.658662e-01
177,1.999136e-01,-5.684404e-04,-5.411198e-04,1.659764e-01
178,1.999503e-01,-5.684455e-04,-5.411199e-04,1.660839e-01
179,1.999785e-01,-5.684494e-04,-5.411200e-04,1.661887e-01
180,2.000002e-01,-5.684523e-04,-5.411199e-04,1.662909e-01
181,2.000170e-01,-5.684546e-04,-5.411199e-04,1.663905e-01
182,2.000298e-01,-5.684562e-04,-5.411198e-04,1.664875e-01
183,2.000391e-01,-5.684574e-04,-5.411197e-04,1.665820e-01
184,2.000452e-01,-5.684581e-04,-5.411195e-04,1.666739e-01
185,2.000485e-01,-5.684584e-04,-5.411194e-04,1.667633e-01
186,2.000495e-01,-5.684585e-04,-5.411194e-04,1.668503e-01
187,2.000494e-01,-5.684587e-04,-5.411196e-04,1.669347e-01
188,2.000500e-01,-5.684589e-04,-5.411197e-04,1.670166e-01
189,2.000535e-01,-5.684597e-04,-5.411200e-04,1.670960e-01
190,2.000626e-01,-5.684612e-04,-5.411203e-04,1.671730e-01
191,2.000798e-01,-5.684639e-04,-5.411207e-04,1.672474e-01
192,2.001073e-01,-5.684680e-04,-5.411210e-04,1.673194e-01
193,2.001469e-01,-5.684738e-04,-5.411214e-04,1.673889e-01
194,2.001994e-01,-5.684813e-04,-5.411217e-04,1.674561e-01
195,2.002652e-01,-5.684906e-04,-5.411220e-04,1.675209e-01
196,2.003438e-01,-5.685017e-04,-5.411224e-04,1.675835e-01
197,2.004342e-01,-5.685144e-04,-5.411227e-04,1.676439e-01
198,2.005345e-01,-5.685284e-04,-5.411229e-04,1.677023e-01
199,2.006426e-01,-5.685433e-04,-5.411231e-04,1.677588e-01
200,2.500057e-01,-5.685441e-04,-5.343779e-04,1.678310e-01
201,2.497752e-01,-5.685126e-04,-5.343778e-04,1.679234e-01
202,2.493134e-01,-5.684492e-04,-5.343775e-04,1.680358e-01
203,2.486306e-01,-5.683553e-04,-5.343770e-04,1.681676e-01
204,2.477426e-01,-5.682334e-04,-5.343764e-04,1.683180e-01
205,2.466708e-01,-5.680861e-04,-5.343756e-04,1.684858e-01
206,2.454418e-01,-5.679172e-04,-5.343747e-04,1.686697e-01
207,2.440869e-01,-5.677310e-04,-5.343736e-04,1.688682e-01
208,2.426410e-01,-5.675322e-04,-5.343724e-04,1.690796e-01
209,2.411408e-01,-5.673259e-04,-5.343711e-04,1.693023e-01
210,2.396233e-01,-5.671172e-04,-5.343699e-04,1.695344e-01
211,2.381233e-01,-5.669109e-04,-5.343686e-04,1.697741e-01
212,2.366714e-01,-5.667112e-04,-5.343673e-04,1.700197e-01
213,2.352924e-01,-5.665216e-04,-5.343661e-04,1.702695e-01
214,2.340043e-01,-5.663445e-04,-5.343650e-04,1.705220e-01
215,2.328178e-01,-5.661814e-04,-5.343641e-04,1.707756e-01
216,2.317378e-01,-5.660329e-04,-5.343632e-04,1.710293e-01
217,2.307635e-01,-5.658989e-04,-5.343623e-04,1.712817e-01
218,2.298906e-01,-5.657787e-04,-5.343614e-04,1.715320e-01
219,2.291119e-01,-5.656714e-04,-5.343606e-04,1.717792e-01
220,2.284197e-01,-5.655760e-04,-5.343598e-04,1.720227e-01
221,2.278058e-01,-5.654913e-04,-5.343590e-04,1.722616e-01
222,2.272634e-01,-5.654163e-04,-5.343581e-04,1.724955e-01
223,2.267870e-01,-5.653503e-04,-5.343572e-04,1.727239e-01
224,2.263731e-01,-5.652929e-04,-5.343563e-04,1.729464e-01
225,2.260201e-01,-5.652438e-04,-5.343555e-04,1.731625e-01
226,2.257273e-01,-5.652030e-04,-5.343547e-04,1.733720e-01
227,2.254952e-01,-5.651705e-04,-5.343539e-04,1.735746e-01
228,2.253244e-01,-5.651464e-04,-5.343532e-04,1.737702e-01
229,2.252152e-01,-5.651308e-04,-5.343525e-04,1.739588e-01
230,2.251673e-01,-5.651238e-04,-5.343521e-04,1.741401e-01
231,2.251796e-01,-5.651252e-04,-5.343518e-04,1.743143e-01
232,2.252501e-01,-5.651346e-04,-5.343515e-04,1.744815e-01
233,2.253756e-01,-5.651516e-04,-5.343514e-04,1.746418e-01
234,2.255517e-01,-5.651757e-04,-5.343514e-04,1.747954e-01
235,2.257733e-01,-5.652060e-04,-5.343514e-04,1.749426e-01
236,2.260343e-01,-5.652417e-04,-5.343515e-04,1.750838e-01
237,2.263286e-01,-5.652822e-04,-5.343517e-04,1.752192e-01
238,2.266499e-01,-5.653264e-04,-5.343520e-04,1.753492e-01
239,2.269920e-01,-5.653735e-04,-5.343524e-04,1.754743e-01
240,2.273492e-01,-5.654228e-04,-5.343528e-04,1.755949e-01
241,2.277155e-01,-5.654734e-04,-5.343533e-04,1.757113e-01
242,2.280853e-01,-5.655245e-04,-5.343539e-04,1.758241e-01
243,2.284529e-01,-5.655752e-04,-5.343544e-04,1.759337e-01
244,2.288122e-01,-5.656248e-04,-5.343549e-04,1.760406e-01
245,2.291575e-01,-5.656724e-04,-5.343553e-04,1.761450e-01
246,2.294833e-01,-5.657173e-04,-5.343557e-04,1.762476e-01
247,2.297843e-01,-5.657589e-04,-5.343562e-04,1.763485e-01
248,2.300565e-01,-5.657965e-04,-5.343566e-04,1.764483e-01
249,2.302969e-01,-5.658298e-04,-5.343570e-04,1.765471e-01
250,2.305038e-01,-5.658586e-04,-5.343575e-04,1.766454e-01
251,2.306770e-01,-5.658827e-04,-5.343580e-04,1.767432e-01
252,2.308174e-01,-5.659023e-04,-5.343584e-04,1.768409e-01
253,2.309270e-01,-5.659179e-04,-5.343590e-04,1.769386e-01
254,2.310077e-01,-5.659294e-04,-5.343595e-04,1.770364e-01
255,2.310617e-01,-5.659373e-04,-5.343599e-04,1.771345e-01
256,2.310906e-01,-5.659417e-04,-5.343605e-04,1.772328e-01
257,2.310959e-01,-5.659430e-04,-5.343610e-04,1.773314e-01
258,2.310793e-01,-5.659411e-04,-5.343614e-04,1.774304e-01
259,2.310424e-01,-5.659364e-04,-5.343617e-04,1.775296e-01
260,2.309878e-01,-5.659292e-04,-5.343620e-04,1.776292e-01
261,2.309181e-01,-5.659199e-04,-5.343622e-04,1.777289e-01
262,2.308368e-01,-5.659088e-04,-5.343622e-04,1.778288e-01
263,2.307475e-01,-5.658965e-04,-5.343621e-04,1.779287e-01
264,2.306537e-01,-5.658835e-04,-5.343619e-04,1.780285e-01
265,2.305592e-01,-5.658704e-04,-5.343617e-04,1.781282e-01
266,2.304675e-01,-5.658577e-04,-5.343616e-04,1.782275e-01
267,2.303822e-01,-5.658458e-04,-5.343614e-04,1.783264e-01
268,2.303063e-01,-5.658353e-04,-5.343612e-04,1.784248e-01
269,2.302426e-01,-5.658264e-04,-5.343610e-04,1.785227e-01
270,2.301932e-01,-5.658193e-04,-5.343607e-04,1.786198e-01
271,2.301592e-01,-5.658145e-04,-5.343606e-04,1.787162e-01
272,2.301412e-01,-5.658118e-04,-5.343603e-04,1.788119e-01
273,2.301386e-01,-5.658114e-04,-5.343602e-04,1.789069e-01
274,2.301501e-01,-5.658127e-04,-5.343600e-04,1.790011e-01
275,2.301731e-01,-5.658157e-04,-5.343598e-04,1.790946e-01
276,2.302042e-01,-5.658198e-04,-5.343597e-04,1.791874e-01
277,2.302393e-01,-5.658244e-04,-5.343595e-04,1.792796e-01
278,2.302732e-01,-5.658289e-04,-5.343593e-04,1.793714e-01
279,2.303004e-01,-5.658325e-04,-5.343592e-04,1.794626e-01
280,2.303154e-01,-5.658344e-04,-5.343591e-04,1.795535e-01
281,2.303133e-01,-5.658340e-04,-5.343590e-04,1.796440e-01
282,2.302903e-01,-5.658308e-04,-5.343589e-04,1.797342e-01
283,2.302441e-01,-5.658245e-04,-5.343590e-04,1.798240e-01
284,2.301744e-01,-5.658151e-04,-5.343590e-04,1.799135e-01
285,2.300824e-01,-5.658024e-04,-5.343589e-04,1.800026e-01
286,2.299712e-01,-5.657871e-04,-5.343588e-04,1.800911e-01
287,2.298448e-01,-5.657699e-04,-5.343588e-04,1.801790e-01
288,2.297079e-01,-5.657511e-04,-5.343588e-04,1.802661e-01
289,2.295651e-01,-5.657317e-04,-5.343589e-04,1.803522e-01
290,2.294208e-01,-5.657121e-04,-5.343591e-04,1.804372e-01
291,2.292783e-01,-5.656929e-04,-5.343594e-04,1.805210e-01
292,2.291405e-01,-5.656745e-04,-5.343597e-04,1.806033e-01
293,2.290091e-01,-5.656568e-04,-5.343600e-04,1.806840e-01
294,2.288852e-01,-5.656401e-04,-5.343603e-04,1.807630e-01
295,2.287693e-01,-5.656247e-04,-5.343606e-04,1.808400e-01
296,2.286613e-01,-5.656103e-04,-5.343611e-04,1.809151e-01
297,2.285613e-01,-5.655971e-04,-5.343615e-04,1.809881e-01
298,2.284690e-01,-5.655848e-04,-5.343619e-04,1.810588e-01
299,2.283846e-01,-5.655736e-04,-5.343622e-04,1.811272e-01
300,2.283083e-01,-5.655636e-04,-5.343626e-04,1.811931e-01
301,2.282409e-01,-5.655549e-04,-5.343631e-04,1.812565e-01
302,2.281837e-01,-5.655478e-04,-5.343638e-04,1.813174e-01
303,2.281383e-01,-5.655423e-04,-5.343645e-04,1.813756e-01
304,2.281070e-01,-5.655386e-04,-5.343651e-04,1.814310e-01
305,2.280919e-01,-5.655372e-04,-5.343658e-04,1.814837e-01
306,2.280955e-01,-5.655384e-04,-5.343664e-04,1.815336e-01
307,2.281198e-01,-5.655424e-04,-5.343671e-04,1.815807e-01
308,2.281668e-01,-5.655495e-04,-5.343678e-04,1.816250e-01
309,2.282376e-01,-5.655601e-04,-5.343687e-04,1.816665e-01
310,2.283330e-01,-5.655740e-04,-5.343696e-04,1.817052e-01
311,2.284533e-01,-5.655913e-04,-5.343705e-04,1.817413e-01
312,2.285981e-01,-5.656120e-04,-5.343714e-04,1.817748e-01
313,2.287664e-01,-5.656360e-04,-5.343723e-04,1.818060e-01
314,2.289569e-01,-5.656630e-04,-5.343733e-04,1.818348e-01
315,2.291672e-01,-5.656926e-04,-5.343742e-04,1.818615e-01
316,2.293945e-01,-5.657245e-04,-5.343750e-04,1.818864e-01
317,2.296350e-01,-5.657582e-04,-5.343759e-04,1.819096e-01
318,2.298842e-01,-5.657931e-04,-5.343767e-04,1.819313e-01
319,2.301367e-01,-5.658285e-04,-5.343776e-04,1.819518e-01
320,2.303865e-01,-5.658636e-04,-5.343785e-04,1.819714e-01
321,2.306265e-01,-5.658972e-04,-5.343794e-04,1.819903e-01
322,2.308490e-01,-5.659285e-04,-5.343803e-04,1.820088e-01
323,2.310459e-01,-5.659563e-04,-5.343812e-04,1.820271e-01
324,2.312087e-01,-5.659795e-04,-5.343820e-04,1.820454e-01
325,2.313300e-01,-5.659968e-04,-5.343828e-04,1.820639e-01
326,2.314039e-01,-5.660076e-04,-5.343835e-04,1.820826e-01
327,2.314275e-01,-5.660114e-04,-5.343842e-04,1.821017e-01
328,2.314011e-01,-5.660084e-04,-5.343847e-04,1.821212e-01
329,2.313292e-01,-5.659990e-04,-5.343851e-04,1.821409e-01
330,2.312194e-01,-5.659841e-04,-5.343853e-04,1.821608e-01
331,2.310823e-01,-5.659655e-04,-5.343854e-04,1.821807e-01
332,2.309303e-01,-5.659448e-04,-5.343854e-04,1.822005e-01
333,2.307760e-01,-5.659238e-04,-5.343856e-04,1.822198e-01
334,2.306311e-01,-5.659042e-04,-5.343857e-04,1.822385e-01
335,2.305052e-01,-5.658871e-04,-5.343858e-04,1.822564e-01
336,2.304051e-01,-5.658734e-04,-5.343859e-04,1.822733e-01
337,2.303336e-01,-5.658637e-04,-5.343859e-04,1.822891e-01
338,2.302903e-01,-5.658578e-04,-5.343859e-04,1.823038e-01
339,2.302711e-01,-5.658553e-04,-5.343861e-04,1.823172e-01
340,2.302695e-01,-5.658553e-04,-5.343862e-04,1.823294e-01
341,2.302776e-01,-5.658566e-04,-5.343865e-04,1.823403e-01
342,2.302875e-01,-5.658582e-04,-5.343867e-04,1.823500e-01
343,2.302922e-01,-5.658591e-04,-5.343869e-04,1.823585e-01
344,2.302874e-01,-5.658586e-04,-5.343871e-04,1.823659e-01
