TimeStep,Temp,PotEnergy,TotEnergy,MeanSqDisp
0,7.480207e-01,-1.484532e-02,-1.260125e-02,7.500000e-03
1,7.420386e-01,-1.482712e-02,-1.260100e-02,1.498019e-02
2,7.319334e-01,-1.479639e-02,-1.260059e-02,2.242016e-02
3,7.175281e-01,-1.475259e-02,-1.260000e-02,2.979832e-02
4,6.986111e-01,-1.469510e-02,-1.259926e-02,3.709144e-02
5,6.749744e-01,-1.462332e-02,-1.259839e-02,4.427414e-02
6,6.464721e-01,-1.453686e-02,-1.259745e-02,5.131851e-02
7,6.131063e-01,-1.443582e-02,-1.259650e-02,5.819392e-02
8,5.751367e-01,-1.432098e-02,-1.259556e-02,6.486702e-02
9,5.332073e-01,-1.419428e-02,-1.259465e-02,7.130227e-02
10,4.884550e-01,-1.405912e-02,-1.259375e-02,7.746301e-02
11,4.425524e-01,-1.392053e-02,-1.259287e-02,8.331312e-02
12,3.976194e-01,-1.378492e-02,-1.259206e-02,8.881947e-02
13,3.559756e-01,-1.365931e-02,-1.259139e-02,9.395458e-02
14,3.197716e-01,-1.355020e-02,-1.259089e-02,9.869929e-02
15,2.906175e-01,-1.346245e-02,-1.259060e-02,1.030446e-01
16,2.693445e-01,-1.339853e-02,-1.259050e-02,1.069922e-01
17,2.559706e-01,-1.335846e-02,-1.259055e-02,1.105541e-01
18,2.498428e-01,-1.334024e-02,-1.259071e-02,1.137511e-01
19,2.498651e-01,-1.334051e-02,-1.259092e-02,1.166100e-01
20,2.547287e-01,-1.335534e-02,-1.259115e-02,1.191621e-01
21,2.630926e-01,-1.338066e-02,-1.259138e-02,1.214407e-01
22,2.737029e-01,-1.341270e-02,-1.259159e-02,1.234791e-01
23,2.854583e-01,-1.344816e-02,-1.259178e-02,1.253097e-01
24,2.974398e-01,-1.348425e-02,-1.259193e-02,1.269628e-01
25,3.089202e-01,-1.351881e-02,-1.259205e-02,1.284654e-01
26,3.193636e-01,-1.355023e-02,-1.259214e-02,1.298415e-01
27,3.284206e-01,-1.357746e-02,-1.259220e-02,1.311114e-01
28,3.359170e-01,-1.359999e-02,-1.259224e-02,1.322916e-01
29,3.418311e-01,-1.361778e-02,-1.259229e-02,1.333952e-01
30,3.462576e-01,-1.363111e-02,-1.259233e-02,1.344322e-01
31,3.493624e-01,-1.364048e-02,-1.259239e-02,1.354099e-01
32,3.513370e-01,-1.364648e-02,-1.259247e-02,1.363333e-01
33,3.523689e-01,-1.364967e-02,-1.259257e-02,1.372058e-01
34,3.526309e-01,-1.365057e-02,-1.259268e-02,1.380294e-01
35,3.522894e-01,-1.364966e-02,-1.259279e-02,1.388050e-01
36,3.515181e-01,-1.364744e-02,-1.259288e-02,1.395326e-01
37,3.505066e-01,-1.364450e-02,-1.259298e-02,1.402117e-01
38,3.494573e-01,-1.364144e-02,-1.259307e-02,1.408414e-01
39,3.485691e-01,-1.363887e-02,-1.259316e-02,1.414206e-01
40,3.480176e-01,-1.363734e-02,-1.259329e-02,1.419486e-01
41,3.479346e-01,-1.363723e-02,-1.259343e-02,1.424250e-01
42,3.483965e-01,-1.363875e-02,-1.259356e-02,1.428500e-01
43,3.494187e-01,-1.364195e-02,-1.259369e-02,1.432245e-01
44,3.509576e-01,-1.364669e-02,-1.259382e-02,1.435504e-01
45,3.529175e-01,-1.365271e-02,-1.259396e-02,1.438298e-01
46,3.551617e-01,-1.365959e-02,-1.259411e-02,1.440658e-01
47,3.575282e-01,-1.366683e-02,-1.259425e-02,1.442616e-01
48,3.598484e-01,-1.367394e-02,-1.259440e-02,1.444205e-01
49,3.619681e-01,-1.368042e-02,-1.259452e-02,1.445457e-01
50,3.637668e-01,-1.368590e-02,-1.259460e-02,1.446400e-01
51,3.651715e-01,-1.369016e-02,-1.259465e-02,1.447058e-01
52,3.661647e-01,-1.369318e-02,-1.259469e-02,1.447447e-01
53,3.667846e-01,-1.369507e-02,-1.259471e-02,1.447577e-01
54,3.671177e-01,-1.369609e-02,-1.259474e-02,1.447452e-01
55,3.672872e-01,-1.369660e-02,-1.259474e-02,1.447071e-01
56,3.674366e-01,-1.369705e-02,-1.259474e-02,1.446431e-01
57,3.677098e-01,-1.369788e-02,-1.259476e-02,1.445526e-01
58,3.682306e-01,-1.369946e-02,-1.259477e-02,1.444354e-01
59,3.690818e-01,-1.370204e-02,-1.259480e-02,1.442916e-01
60,3.702909e-01,-1.370570e-02,-1.259483e-02,1.441217e-01
61,3.718270e-01,-1.371036e-02,-1.259488e-02,1.439267e-01
62,3.736121e-01,-1.371575e-02,-1.259491e-02,1.437081e-01
63,3.755470e-01,-1.372157e-02,-1.259493e-02,1.434678e-01
64,3.775437e-01,-1.372756e-02,-1.259493e-02,1.432077e-01
65,3.795521e-01,-1.373358e-02,-1.259493e-02,1.429298e-01
66,3.815740e-01,-1.373964e-02,-1.259492e-02,1.426360e-01
67,3.836558e-01,-1.374587e-02,-1.259491e-02,1.423283e-01
68,3.858666e-01,-1.375249e-02,-1.259489e-02,1.420085e-01
69,3.882684e-01,-1.375968e-02,-1.259487e-02,1.416787e-01
70,3.908888e-01,-1.376752e-02,-1.259485e-02,1.413415e-01
71,3.937056e-01,-1.377596e-02,-1.259484e-02,1.409998e-01
72,3.966428e-01,-1.378476e-02,-1.259483e-02,1.406569e-01
73,3.995805e-01,-1.379356e-02,-1.259482e-02,1.403165e-01
74,4.023718e-01,-1.380191e-02,-1.259480e-02,1.399823e-01
75,4.048646e-01,-1.380936e-02,-1.259477e-02,1.396581e-01
76,4.069245e-01,-1.381553e-02,-1.259476e-02,1.393471e-01
77,4.084539e-01,-1.382010e-02,-1.259474e-02,1.390521e-01
78,4.094048e-01,-1.382292e-02,-1.259471e-02,1.387750e-01
79,4.097828e-01,-1.382401e-02,-1.259467e-02,1.385170e-01
80,4.096420e-01,-1.382355e-02,-1.259462e-02,1.382784e-01
81,4.090737e-01,-1.382179e-02,-1.259457e-02,1.380587e-01
82,4.081919e-01,-1.381907e-02,-1.259449e-02,1.378567e-01
83,4.071174e-01,-1.381578e-02,-1.259442e-02,1.376710e-01
84,4.059628e-01,-1.381227e-02,-1.259438e-02,1.374999e-01
85,4.048169e-01,-1.380880e-02,-1.259434e-02,1.373415e-01
86,4.037333e-01,-1.380549e-02,-1.259429e-02,1.371942e-01
87,4.027230e-01,-1.380242e-02,-1.259425e-02,1.370564e-01
88,4.017569e-01,-1.379949e-02,-1.259422e-02,1.369268e-01
89,4.007768e-01,-1.379651e-02,-1.259418e-02,1.368042e-01
90,3.997137e-01,-1.379329e-02,-1.259415e-02,1.366873e-01
91,3.985093e-01,-1.378964e-02,-1.259411e-02,1.365746e-01
92,3.971365e-01,-1.378549e-02,-1.259408e-02,1.364645e-01
93,3.956140e-01,-1.378089e-02,-1.259405e-02,1.363548e-01
94,3.940092e-01,-1.377602e-02,-1.259399e-02,1.362432e-01
95,3.924294e-01,-1.377123e-02,-1.259394e-02,1.361271e-01
96,3.910018e-01,-1.376690e-02,-1.259389e-02,1.360039e-01
97,3.898480e-01,-1.376341e-02,-1.259387e-02,1.358711e-01
98,3.890623e-01,-1.376104e-02,-1.259386e-02,1.357267e-01
99,3.887006e-01,-1.375996e-02,-1.259386e-02,1.355693e-01
100,7.483240e-01,-1.375493e-02,-1.150996e-02,1.354341e-01
101,7.437254e-01,-1.374115e-02,-1.150997e-02,1.354826e-01
102,7.363436e-01,-1.371900e-02,-1.150997e-02,1.357080e-01
103,7.264467e-01,-1.368931e-02,-1.150997e-02,1.360987e-01
104,7.144260e-01,-1.365323e-02,-1.150995e-02,1.366395e-01
105,7.007709e-01,-1.361222e-02,-1.150991e-02,1.373117e-01
106,6.860349e-01,-1.356798e-02,-1.150987e-02,1.380945e-01
107,6.708068e-01,-1.352224e-02,-1.150982e-02,1.389657e-01
108,6.557016e-01,-1.347687e-02,-1.150976e-02,1.399029e-01
109,6.413630e-01,-1.343380e-02,-1.150971e-02,1.408845e-01
110,6.284427e-01,-1.339499e-02,-1.150966e-02,1.418905e-01
111,6.175233e-01,-1.336222e-02,-1.150965e-02,1.429035e-01
112,6.089860e-01,-1.333668e-02,-1.150972e-02,1.439098e-01
113,6.028937e-01,-1.331856e-02,-1.150988e-02,1.448997e-01
114,5.989659e-01,-1.330700e-02,-1.151010e-02,1.458675e-01
115,5.966661e-01,-1.330030e-02,-1.151031e-02,1.468109e-01
116,5.953537e-01,-1.329653e-02,-1.151047e-02,1.477298e-01
117,5.944376e-01,-1.329389e-02,-1.151057e-02,1.486254e-01
118,5.934908e-01,-1.329110e-02,-1.151063e-02,1.494990e-01
119,5.923056e-01,-1.328755e-02,-1.151063e-02,1.503512e-01
120,5.908906e-01,-1.328326e-02,-1.151059e-02,1.511821e-01
121,5.894236e-01,-1.327882e-02,-1.151055e-02,1.519910e-01
122,5.881795e-01,-1.327507e-02,-1.151053e-02,1.527768e-01
123,5.874503e-01,-1.327289e-02,-1.151053e-02,1.535387e-01
124,5.874701e-01,-1.327294e-02,-1.151053e-02,1.542764e-01
125,5.883531e-01,-1.327561e-02,-1.151055e-02,1.549910e-01
126,5.900554e-01,-1.328078e-02,-1.151061e-02,1.556848e-01
127,5.923644e-01,-1.328780e-02,-1.151071e-02,1.563615e-01
128,5.949181e-01,-1.329555e-02,-1.151080e-02,1.570256e-01
129,5.972512e-01,-1.330264e-02,-1.151089e-02,1.576822e-01
130,5.988606e-01,-1.330755e-02,-1.151097e-02,1.583363e-01
131,5.992819e-01,-1.330888e-02,-1.151103e-02,1.589915e-01
132,5.981638e-01,-1.330555e-02,-1.151106e-02,1.596502e-01
133,5.953254e-01,-1.329705e-02,-1.151107e-02,1.603122e-01
134,5.907847e-01,-1.328343e-02,-1.151107e-02,1.609753e-01
135,5.847568e-01,-1.326530e-02,-1.151103e-02,1.616346e-01
136,5.776262e-01,-1.324385e-02,-1.151097e-02,1.622832e-01
137,5.699019e-01,-1.322064e-02,-1.151093e-02,1.629130e-01
138,5.621672e-01,-1.319740e-02,-1.151090e-02,1.635148e-01
139,5.550297e-01,-1.317596e-02,-1.151087e-02,1.640796e-01
140,5.490711e-01,-1.315806e-02,-1.151085e-02,1.645989e-01
141,5.447848e-01,-1.314523e-02,-1.151088e-02,1.650660e-01
142,5.424930e-01,-1.313843e-02,-1.151095e-02,1.654762e-01
143,5.422621e-01,-1.313786e-02,-1.151107e-02,1.658272e-01
144,5.438708e-01,-1.314285e-02,-1.151124e-02,1.661195e-01
145,5.468717e-01,-1.315204e-02,-1.151142e-02,1.663557e-01
146,5.507275e-01,-1.316377e-02,-1.151159e-02,1.665399e-01
147,5.549542e-01,-1.317657e-02,-1.151171e-02,1.666771e-01
148,5.592007e-01,-1.318940e-02,-1.151180e-02,1.667724e-01
149,5.632447e-01,-1.320162e-02,-1.151188e-02,1.668309e-01
150,5.669378e-01,-1.321279e-02,-1.151198e-02,1.668570e-01
151,5.701564e-01,-1.322254e-02,-1.151207e-02,1.668550e-01
152,5.727988e-01,-1.323053e-02,-1.151213e-02,1.668284e-01
153,5.748198e-01,-1.323661e-02,-1.151215e-02,1.667800e-01
154,5.762657e-01,-1.324094e-02,-1.151214e-02,1.667119e-01
155,5.772722e-01,-1.324395e-02,-1.151214e-02,1.666255e-01
156,5.780221e-01,-1.324619e-02,-1.151212e-02,1.665219e-01
157,5.786896e-01,-1.324818e-02,-1.151211e-02,1.664018e-01
158,5.794010e-01,-1.325029e-02,-1.151209e-02,1.662659e-01
159,5.802230e-01,-1.325274e-02,-1.151207e-02,1.661153e-01
160,5.811680e-01,-1.325555e-02,-1.151205e-02,1.659511e-01
161,5.822040e-01,-1.325862e-02,-1.151201e-02,1.657748e-01
162,5.832625e-01,-1.326177e-02,-1.151198e-02,1.655879e-01
163,5.842464e-01,-1.326470e-02,-1.151197e-02,1.653921e-01
164,5.850422e-01,-1.326708e-02,-1.151196e-02,1.651889e-01
165,5.855371e-01,-1.326857e-02,-1.151196e-02,1.649796e-01
166,5.856399e-01,-1.326887e-02,-1.151195e-02,1.647650e-01
167,5.853012e-01,-1.326782e-02,-1.151191e-02,1.645451e-01
168,5.845279e-01,-1.326544e-02,-1.151186e-02,1.643196e-01
169,5.833927e-01,-1.326195e-02,-1.151177e-02,1.640872e-01
170,5.820411e-01,-1.325778e-02,-1.151165e-02,1.638460e-01
171,5.806944e-01,-1.325362e-02,-1.151153e-02,1.635939e-01
172,5.796378e-01,-1.325034e-02,-1.151143e-02,1.633284e-01
173,5.791741e-01,-1.324885e-02,-1.151133e-02,1.630476e-01
174,5.795510e-01,-1.324993e-02,-1.151127e-02,1.627499e-01
175,5.808986e-01,-1.325394e-02,-1.151124e-02,1.624352e-01
176,5.832185e-01,-1.326087e-02,-1.151121e-02,1.621045e-01
177,5.864196e-01,-1.327044e-02,-1.151118e-02,1.617602e-01
178,5.903524e-01,-1.328220e-02,-1.151115e-02,1.614056e-01
179,5.948097e-01,-1.329554e-02,-1.151112e-02,1.610454e-01
180,5.995106e-01,-1.330965e-02,-1.151111e-02,1.606847e-01
181,6.041062e-01,-1.332345e-02,-1.151113e-02,1.603292e-01
182,6.082176e-01,-1.333579e-02,-1.151113e-02,1.599847e-01
183,6.114900e-01,-1.334562e-02,-1.151115e-02,1.596562e-01
184,6.136370e-01,-1.335208e-02,-1.151117e-02,1.593478e-01
185,6.144702e-01,-1.335458e-02,-1.151117e-02,1.590621e-01
186,6.139149e-01,-1.335292e-02,-1.151118e-02,1.587999e-01
187,6.120159e-01,-1.334720e-02,-1.151115e-02,1.585603e-01
188,6.089301e-01,-1.333788e-02,-1.151109e-02,1.583406e-01
189,6.049055e-01,-1.332573e-02,-1.151102e-02,1.581364e-01
190,6.002485e-01,-1.331170e-02,-1.151096e-02,1.579423e-01
191,5.952868e-01,-1.329677e-02,-1.151091e-02,1.577521e-01
192,5.903354e-01,-1.328186e-02,-1.151085e-02,1.575591e-01
193,5.856750e-01,-1.326785e-02,-1.151082e-02,1.573570e-01
194,5.815459e-01,-1.325545e-02,-1.151081e-02,1.571396e-01
195,5.781573e-01,-1.324528e-02,-1.151081e-02,1.569015e-01
196,5.757031e-01,-1.323791e-02,-1.151081e-02,1.566383e-01
197,5.743702e-01,-1.323394e-02,-1.151082e-02,1.563466e-01
198,5.743281e-01,-1.323384e-02,-1.151086e-02,1.560244e-01
199,5.756972e-01,-1.323801e-02,-1.151092e-02,1.556710e-01
200,7.520762e-01,-1.324429e-02,-1.098806e-02,1.552776e-01
201,7.535413e-01,-1.324872e-02,-1.098810e-02,1.549407e-01
202,7.544570e-01,-1.325151e-02,-1.098814e-02,1.546620e-01
203,7.549153e-01,-1.325293e-02,-1.098818e-02,1.544423e-01
204,7.550268e-01,-1.325330e-02,-1.098821e-02,1.542819e-01
205,7.549001e-01,-1.325294e-02,-1.098824e-02,1.541804e-01
206,7.546148e-01,-1.325212e-02,-1.098827e-02,1.541375e-01
207,7.541921e-01,-1.325087e-02,-1.098829e-02,1.541523e-01
208,7.535739e-01,-1.324902e-02,-1.098830e-02,1.542243e-01
209,7.526242e-01,-1.324616e-02,-1.098829e-02,1.543525e-01
210,7.511584e-01,-1.324177e-02,-1.098829e-02,1.545361e-01
211,7.489943e-01,-1.323529e-02,-1.098831e-02,1.547735e-01
212,7.460052e-01,-1.322634e-02,-1.098832e-02,1.550622e-01
213,7.421523e-01,-1.321480e-02,-1.098834e-02,1.553991e-01
214,7.374857e-01,-1.320081e-02,-1.098835e-02,1.557795e-01
215,7.321208e-01,-1.318471e-02,-1.098835e-02,1.561981e-01
216,7.262193e-01,-1.316699e-02,-1.098833e-02,1.566485e-01
217,7.199903e-01,-1.314825e-02,-1.098828e-02,1.571238e-01
218,7.137046e-01,-1.312931e-02,-1.098820e-02,1.576165e-01
219,7.076874e-01,-1.311117e-02,-1.098811e-02,1.581192e-01
220,7.022715e-01,-1.309485e-02,-1.098803e-02,1.586245e-01
221,6.977339e-01,-1.308117e-02,-1.098797e-02,1.591259e-01
222,6.942564e-01,-1.307069e-02,-1.098792e-02,1.596183e-01
223,6.919364e-01,-1.306367e-02,-1.098786e-02,1.600975e-01
224,6.908265e-01,-1.306028e-02,-1.098780e-02,1.605613e-01
225,6.909517e-01,-1.306059e-02,-1.098774e-02,1.610085e-01
226,6.922695e-01,-1.306452e-02,-1.098771e-02,1.614399e-01
227,6.945991e-01,-1.307151e-02,-1.098771e-02,1.618580e-01
228,6.975898e-01,-1.308052e-02,-1.098775e-02,1.622664e-01
229,7.007734e-01,-1.309011e-02,-1.098779e-02,1.626700e-01
230,7.036764e-01,-1.309886e-02,-1.098783e-02,1.630739e-01
231,7.059242e-01,-1.310559e-02,-1.098782e-02,1.634826e-01
232,7.072933e-01,-1.310966e-02,-1.098778e-02,1.638999e-01
233,7.077112e-01,-1.311087e-02,-1.098774e-02,1.643284e-01
234,7.072273e-01,-1.310936e-02,-1.098768e-02,1.647694e-01
235,7.059728e-01,-1.310554e-02,-1.098762e-02,1.652228e-01
236,7.041229e-01,-1.309990e-02,-1.098753e-02,1.656879e-01
237,7.018629e-01,-1.309303e-02,-1.098744e-02,1.661631e-01
238,6.993595e-01,-1.308544e-02,-1.098736e-02,1.666463e-01
239,6.967356e-01,-1.307753e-02,-1.098732e-02,1.671351e-01
240,6.940506e-01,-1.306948e-02,-1.098733e-02,1.676271e-01
241,6.912938e-01,-1.306124e-02,-1.098736e-02,1.681197e-01
242,6.884017e-01,-1.305258e-02,-1.098738e-02,1.686102e-01
243,6.853066e-01,-1.304329e-02,-1.098737e-02,1.690957e-01
244,6.820138e-01,-1.303337e-02,-1.098733e-02,1.695730e-01
245,6.786730e-01,-1.302328e-02,-1.098726e-02,1.700384e-01
246,6.755931e-01,-1.301398e-02,-1.098720e-02,1.704882e-01
247,6.731647e-01,-1.300668e-02,-1.098718e-02,1.709189e-01
248,6.717168e-01,-1.300237e-02,-1.098722e-02,1.713277e-01
249,6.713915e-01,-1.300149e-02,-1.098732e-02,1.717133e-01
250,6.721105e-01,-1.300379e-02,-1.098746e-02,1.720762e-01
251,6.736239e-01,-1.300848e-02,-1.098760e-02,1.724179e-01
252,6.755786e-01,-1.301448e-02,-1.098774e-02,1.727412e-01
253,6.775750e-01,-1.302060e-02,-1.098788e-02,1.730493e-01
254,6.792242e-01,-1.302570e-02,-1.098802e-02,1.733455e-01
255,6.802212e-01,-1.302879e-02,-1.098812e-02,1.736328e-01
256,6.804105e-01,-1.302942e-02,-1.098819e-02,1.739129e-01
257,6.798048e-01,-1.302760e-02,-1.098819e-02,1.741868e-01
258,6.785385e-01,-1.302377e-02,-1.098815e-02,1.744543e-01
259,6.767768e-01,-1.301849e-02,-1.098816e-02,1.747143e-01
260,6.746322e-01,-1.301209e-02,-1.098819e-02,1.749651e-01
261,6.721351e-01,-1.300463e-02,-1.098822e-02,1.752047e-01
262,6.692669e-01,-1.299601e-02,-1.098821e-02,1.754304e-01
263,6.660225e-01,-1.298626e-02,-1.098819e-02,1.756392e-01
264,6.624705e-01,-1.297556e-02,-1.098815e-02,1.758273e-01
265,6.587931e-01,-1.296445e-02,-1.098807e-02,1.759905e-01
266,6.552940e-01,-1.295384e-02,-1.098796e-02,1.761243e-01
267,6.523616e-01,-1.294496e-02,-1.098787e-02,1.762241e-01
268,6.503818e-01,-1.293896e-02,-1.098781e-02,1.762860e-01
269,6.496194e-01,-1.293664e-02,-1.098778e-02,1.763069e-01
270,6.501168e-01,-1.293818e-02,-1.098783e-02,1.762852e-01
271,6.516564e-01,-1.294291e-02,-1.098794e-02,1.762208e-01
272,6.538243e-01,-1.294955e-02,-1.098808e-02,1.761150e-01
273,6.561774e-01,-1.295670e-02,-1.098817e-02,1.759694e-01
274,6.584701e-01,-1.296359e-02,-1.098818e-02,1.757859e-01
275,6.608023e-01,-1.297050e-02,-1.098809e-02,1.755658e-01
276,6.635099e-01,-1.297851e-02,-1.098798e-02,1.753105e-01
277,6.668456e-01,-1.298845e-02,-1.098792e-02,1.750220e-01
278,6.708290e-01,-1.300031e-02,-1.098783e-02,1.747033e-01
279,6.754469e-01,-1.301403e-02,-1.098769e-02,1.743580e-01
280,6.808353e-01,-1.303003e-02,-1.098753e-02,1.739908e-01
281,6.871342e-01,-1.304882e-02,-1.098742e-02,1.736072e-01
282,6.942210e-01,-1.307004e-02,-1.098738e-02,1.732139e-01
283,7.016376e-01,-1.309231e-02,-1.098740e-02,1.728190e-01
284,7.087402e-01,-1.311362e-02,-1.098740e-02,1.724309e-01
285,7.149189e-01,-1.313218e-02,-1.098743e-02,1.720580e-01
286,7.197616e-01,-1.314671e-02,-1.098743e-02,1.717070e-01
287,7.231181e-01,-1.315679e-02,-1.098744e-02,1.713831e-01
288,7.250830e-01,-1.316268e-02,-1.098743e-02,1.710895e-01
289,7.259283e-01,-1.316519e-02,-1.098741e-02,1.708273e-01
290,7.260200e-01,-1.316542e-02,-1.098736e-02,1.705965e-01
291,7.257348e-01,-1.316454e-02,-1.098733e-02,1.703962e-01
292,7.253879e-01,-1.316348e-02,-1.098731e-02,1.702250e-01
293,7.251828e-01,-1.316286e-02,-1.098731e-02,1.700821e-01
294,7.251873e-01,-1.316293e-02,-1.098736e-02,1.699669e-01
295,7.253414e-01,-1.316347e-02,-1.098745e-02,1.698792e-01
296,7.254944e-01,-1.316403e-02,-1.098755e-02,1.698194e-01
297,7.254606e-01,-1.316402e-02,-1.098764e-02,1.697881e-01
298,7.250723e-01,-1.316289e-02,-1.098768e-02,1.697854e-01
299,7.242095e-01,-1.316033e-02,-1.098770e-02,1.698111e-01
300,7.228039e-01,-1.315613e-02,-1.098772e-02,1.698645e-01
301,7.208285e-01,-1.315023e-02,-1.098774e-02,1.699440e-01
302,7.182912e-01,-1.314264e-02,-1.098776e-02,1.700473e-01
303,7.152404e-01,-1.313348e-02,-1.098776e-02,1.701715e-01
304,7.117752e-01,-1.312307e-02,-1.098774e-02,1.703129e-01
305,7.080333e-01,-1.311179e-02,-1.098769e-02,1.704674e-01
306,7.041449e-01,-1.310007e-02,-1.098763e-02,1.706304e-01
307,7.001904e-01,-1.308813e-02,-1.098756e-02,1.707974e-01
308,6.962115e-01,-1.307611e-02,-1.098748e-02,1.709641e-01
309,6.922812e-01,-1.306421e-02,-1.098737e-02,1.711259e-01
310,6.885781e-01,-1.305299e-02,-1.098726e-02,1.712786e-01
311,6.854025e-01,-1.304335e-02,-1.098714e-02,1.714180e-01
312,6.831065e-01,-1.303635e-02,-1.098703e-02,1.715406e-01
313,6.819665e-01,-1.303283e-02,-1.098693e-02,1.716441e-01
314,6.820608e-01,-1.303305e-02,-1.098686e-02,1.717279e-01
315,6.832203e-01,-1.303650e-02,-1.098684e-02,1.717928e-01
316,6.850761e-01,-1.304210e-02,-1.098687e-02,1.718412e-01
317,6.871778e-01,-1.304846e-02,-1.098693e-02,1.718765e-01
318,6.891225e-01,-1.305430e-02,-1.098694e-02,1.719019e-01
319,6.906433e-01,-1.305887e-02,-1.098694e-02,1.719208e-01
320,6.916382e-01,-1.306186e-02,-1.098694e-02,1.719357e-01
321,6.921470e-01,-1.306338e-02,-1.098694e-02,1.719483e-01
322,6.922953e-01,-1.306383e-02,-1.098695e-02,1.719597e-01
323,6.922241e-01,-1.306365e-02,-1.098698e-02,1.719708e-01
324,6.920291e-01,-1.306311e-02,-1.098702e-02,1.719821e-01
325,6.917326e-01,-1.306225e-02,-1.098706e-02,1.719942e-01
326,6.912969e-01,-1.306095e-02,-1.098706e-02,1.720076e-01
327,6.906646e-01,-1.305904e-02,-1.098705e-02,1.720227e-01
328,6.898033e-01,-1.305643e-02,-1.098702e-02,1.720399e-01
329,6.887337e-01,-1.305318e-02,-1.098698e-02,1.720589e-01
330,6.875296e-01,-1.304951e-02,-1.098692e-02,1.720795e-01
331,6.862881e-01,-1.304572e-02,-1.098686e-02,1.721007e-01
332,6.850815e-01,-1.304209e-02,-1.098685e-02,1.721219e-01
333,6.839137e-01,-1.303859e-02,-1.098685e-02,1.721421e-01
334,6.827117e-01,-1.303498e-02,-1.098685e-02,1.721603e-01
335,6.813551e-01,-1.303091e-02,-1.098684e-02,1.721754e-01
336,6.797197e-01,-1.302599e-02,-1.098683e-02,1.721861e-01
337,6.777082e-01,-1.301994e-02,-1.098681e-02,1.721907e-01
338,6.752663e-01,-1.301256e-02,-1.098677e-02,1.721867e-01
339,6.724014e-01,-1.300392e-02,-1.098671e-02,1.721713e-01
340,6.692118e-01,-1.299429e-02,-1.098665e-02,1.721412e-01
341,6.659141e-01,-1.298434e-02,-1.098659e-02,1.720924e-01
342,6.628501e-01,-1.297506e-02,-1.098651e-02,1.720205e-01
343,6.604584e-01,-1.296781e-02,-1.098644e-02,1.719217e-01
344,6.592128e-01,-1.296405e-02,-1.098641e-02,1.717925e-01
