TimeStep,Temp,PotEnergy,TotEnergy,MeanSqDisp
0,3.498636e-01,-1.189780e-02,-1.084821e-02,5.123475e-03
1,3.494500e-01,-1.189644e-02,-1.084809e-02,1.024495e-02
2,3.487467e-01,-1.189417e-02,-1.084793e-02,1.536237e-02
3,3.477323e-01,-1.189108e-02,-1.084788e-02,2.047354e-02
4,3.463770e-01,-1.188714e-02,-1.084801e-02,2.557607e-02
5,3.446428e-01,-1.188219e-02,-1.084827e-02,3.066730e-02
6,3.424845e-01,-1.187608e-02,-1.084862e-02,3.574426e-02
7,3.398495e-01,-1.186860e-02,-1.084905e-02,4.080356e-02
8,3.366789e-01,-1.185955e-02,-1.084951e-02,4.584136e-02
9,3.329094e-01,-1.184868e-02,-1.084996e-02,5.085328e-02
10,3.284746e-01,-1.183581e-02,-1.085038e-02,5.583436e-02
11,3.233090e-01,-1.182070e-02,-1.085078e-02,6.077896e-02
12,3.173518e-01,-1.180319e-02,-1.085113e-02,6.568077e-02
13,3.105527e-01,-1.178310e-02,-1.085144e-02,7.053274e-02
14,3.028790e-01,-1.176034e-02,-1.085171e-02,7.532708e-02
15,2.943234e-01,-1.173489e-02,-1.085192e-02,8.005530e-02
16,2.849132e-01,-1.170681e-02,-1.085207e-02,8.470828e-02
17,2.747180e-01,-1.167633e-02,-1.085217e-02,8.927637e-02
18,2.638562e-01,-1.164378e-02,-1.085221e-02,9.374962e-02
19,2.524978e-01,-1.160969e-02,-1.085219e-02,9.811798e-02
20,2.408615e-01,-1.157471e-02,-1.085213e-02,1.023716e-01
21,2.292056e-01,-1.153964e-02,-1.085202e-02,1.065012e-01
22,2.178125e-01,-1.150533e-02,-1.085189e-02,1.104984e-01
23,2.069683e-01,-1.147264e-02,-1.085173e-02,1.143561e-01
24,1.969399e-01,-1.144237e-02,-1.085156e-02,1.180686e-01
25,1.879539e-01,-1.141523e-02,-1.085137e-02,1.216322e-01
26,1.801801e-01,-1.139173e-02,-1.085119e-02,1.250450e-01
27,1.737222e-01,-1.137217e-02,-1.085100e-02,1.283068e-01
28,1.686161e-01,-1.135669e-02,-1.085084e-02,1.314196e-01
29,1.648347e-01,-1.134519e-02,-1.085069e-02,1.343868e-01
30,1.622984e-01,-1.133745e-02,-1.085055e-02,1.372133e-01
31,1.608869e-01,-1.133308e-02,-1.085042e-02,1.399053e-01
32,1.604528e-01,-1.133166e-02,-1.085030e-02,1.424698e-01
33,1.608337e-01,-1.133268e-02,-1.085018e-02,1.449143e-01
34,1.618623e-01,-1.133566e-02,-1.085007e-02,1.472467e-01
35,1.633758e-01,-1.134009e-02,-1.084996e-02,1.494751e-01
36,1.652215e-01,-1.134552e-02,-1.084986e-02,1.516073e-01
37,1.672623e-01,-1.135155e-02,-1.084976e-02,1.536511e-01
38,1.693800e-01,-1.135781e-02,-1.084967e-02,1.556137e-01
39,1.714767e-01,-1.136400e-02,-1.084957e-02,1.575017e-01
40,1.734761e-01,-1.136992e-02,-1.084949e-02,1.593214e-01
41,1.753230e-01,-1.137538e-02,-1.084941e-02,1.610783e-01
42,1.769825e-01,-1.138029e-02,-1.084934e-02,1.627773e-01
43,1.784375e-01,-1.138459e-02,-1.084927e-02,1.644227e-01
44,1.796864e-01,-1.138828e-02,-1.084922e-02,1.660183e-01
45,1.807393e-01,-1.139139e-02,-1.084917e-02,1.675674e-01
46,1.816147e-01,-1.139395e-02,-1.084911e-02,1.690728e-01
47,1.823350e-01,-1.139605e-02,-1.084905e-02,1.705369e-01
48,1.829235e-01,-1.139776e-02,-1.084899e-02,1.719618e-01
49,1.834017e-01,-1.139916e-02,-1.084895e-02,1.733493e-01
50,1.837880e-01,-1.140029e-02,-1.084893e-02,1.747011e-01
51,1.840968e-01,-1.140119e-02,-1.084890e-02,1.760185e-01
52,1.843395e-01,-1.140190e-02,-1.084889e-02,1.773030e-01
53,1.845246e-01,-1.140245e-02,-1.084888e-02,1.785555e-01
54,1.846593e-01,-1.140286e-02,-1.084888e-02,1.797773e-01
55,1.847496e-01,-1.140314e-02,-1.084889e-02,1.809691e-01
56,1.848011e-01,-1.140330e-02,-1.084890e-02,1.821319e-01
57,1.848192e-01,-1.140336e-02,-1.084890e-02,1.832664e-01
58,1.848105e-01,-1.140334e-02,-1.084891e-02,1.843734e-01
59,1.847829e-01,-1.140328e-02,-1.084893e-02,1.854534e-01
60,1.847469e-01,-1.140320e-02,-1.084895e-02,1.865070e-01
61,1.847160e-01,-1.140314e-02,-1.084899e-02,1.875347e-01
62,1.847064e-01,-1.140315e-02,-1.084903e-02,1.885371e-01
63,1.847363e-01,-1.140328e-02,-1.084907e-02,1.895147e-01
64,1.848242e-01,-1.140358e-02,-1.084911e-02,1.904679e-01
65,1.849872e-01,-1.140410e-02,-1.084914e-02,1.913974e-01
66,1.852391e-01,-1.140490e-02,-1.084918e-02,1.923037e-01
67,1.855890e-01,-1.140598e-02,-1.084921e-02,1.931876e-01
68,1.860400e-01,-1.140738e-02,-1.084926e-02,1.940498e-01
69,1.865886e-01,-1.140907e-02,-1.084930e-02,1.948912e-01
70,1.872244e-01,-1.141104e-02,-1.084936e-02,1.957128e-01
71,1.879309e-01,-1.141322e-02,-1.084943e-02,1.965156e-01
72,1.886866e-01,-1.141556e-02,-1.084950e-02,1.973006e-01
73,1.894662e-01,-1.141797e-02,-1.084957e-02,1.980691e-01
74,1.902438e-01,-1.142037e-02,-1.084964e-02,1.988220e-01
75,1.909948e-01,-1.142269e-02,-1.084971e-02,1.995604e-01
76,1.916981e-01,-1.142488e-02,-1.084978e-02,2.002853e-01
77,1.923382e-01,-1.142687e-02,-1.084986e-02,2.009975e-01
78,1.929050e-01,-1.142864e-02,-1.084992e-02,2.016979e-01
79,1.933932e-01,-1.143017e-02,-1.084999e-02,2.023870e-01
80,1.938013e-01,-1.143147e-02,-1.085007e-02,2.030654e-01
81,1.941299e-01,-1.143253e-02,-1.085014e-02,2.037336e-01
82,1.943801e-01,-1.143336e-02,-1.085022e-02,2.043918e-01
83,1.945535e-01,-1.143398e-02,-1.085032e-02,2.050404e-01
84,1.946517e-01,-1.143437e-02,-1.085041e-02,2.056794e-01
85,1.946775e-01,-1.143453e-02,-1.085050e-02,2.063089e-01
86,1.946353e-01,-1.143449e-02,-1.085058e-02,2.069289e-01
87,1.945321e-01,-1.143426e-02,-1.085066e-02,2.075393e-01
88,1.943785e-01,-1.143387e-02,-1.085073e-02,2.081400e-01
89,1.941887e-01,-1.143337e-02,-1.085080e-02,2.087308e-01
90,1.939797e-01,-1.143282e-02,-1.085088e-02,2.093115e-01
91,1.937712e-01,-1.143228e-02,-1.085096e-02,2.098817e-01
92,1.935838e-01,-1.143180e-02,-1.085104e-02,2.104414e-01
93,1.934379e-01,-1.143145e-02,-1.085113e-02,2.109902e-01
94,1.933522e-01,-1.143129e-02,-1.085123e-02,2.115279e-01
95,1.933426e-01,-1.143135e-02,-1.085132e-02,2.120546e-01
96,1.934207e-01,-1.143169e-02,-1.085142e-02,2.125701e-01
97,1.935934e-01,-1.143230e-02,-1.085152e-02,2.130745e-01
98,1.938618e-01,-1.143320e-02,-1.085162e-02,2.135680e-01
99,1.942212e-01,-1.143437e-02,-1.085171e-02,2.140509e-01
100,3.502379e-01,-1.143521e-02,-1.038450e-02,2.147139e-01
101,3.498657e-01,-1.143422e-02,-1.038462e-02,2.154200e-01
102,3.488801e-01,-1.143137e-02,-1.038473e-02,2.161685e-01
103,3.472904e-01,-1.142669e-02,-1.038482e-02,2.169577e-01
104,3.451198e-01,-1.142027e-02,-1.038491e-02,2.177854e-01
105,3.424078e-01,-1.141220e-02,-1.038498e-02,2.186490e-01
106,3.392131e-01,-1.140267e-02,-1.038503e-02,2.195452e-01
107,3.356151e-01,-1.139192e-02,-1.038508e-02,2.204701e-01
108,3.317145e-01,-1.138025e-02,-1.038510e-02,2.214198e-01
109,3.276312e-01,-1.136801e-02,-1.038512e-02,2.223898e-01
110,3.234981e-01,-1.135562e-02,-1.038512e-02,2.233757e-01
111,3.194507e-01,-1.134347e-02,-1.038512e-02,2.243730e-01
112,3.156148e-01,-1.133196e-02,-1.038511e-02,2.253774e-01
113,3.120952e-01,-1.132141e-02,-1.038512e-02,2.263852e-01
114,3.089682e-01,-1.131205e-02,-1.038514e-02,2.273927e-01
115,3.062791e-01,-1.130401e-02,-1.038517e-02,2.283971e-01
116,3.040442e-01,-1.129733e-02,-1.038520e-02,2.293959e-01
117,3.022544e-01,-1.129199e-02,-1.038523e-02,2.303873e-01
118,3.008788e-01,-1.128790e-02,-1.038526e-02,2.313699e-01
119,2.998690e-01,-1.128489e-02,-1.038529e-02,2.323429e-01
120,2.991633e-01,-1.128279e-02,-1.038530e-02,2.333058e-01
121,2.986935e-01,-1.128140e-02,-1.038532e-02,2.342582e-01
122,2.983926e-01,-1.128053e-02,-1.038535e-02,2.352003e-01
123,2.982021e-01,-1.127998e-02,-1.038538e-02,2.361322e-01
124,2.980773e-01,-1.127962e-02,-1.038539e-02,2.370541e-01
125,2.979886e-01,-1.127938e-02,-1.038541e-02,2.379662e-01
126,2.979176e-01,-1.127918e-02,-1.038542e-02,2.388688e-01
127,2.978506e-01,-1.127899e-02,-1.038543e-02,2.397619e-01
128,2.977715e-01,-1.127877e-02,-1.038546e-02,2.406459e-01
129,2.976581e-01,-1.127846e-02,-1.038549e-02,2.415209e-01
130,2.974833e-01,-1.127797e-02,-1.038552e-02,2.423869e-01
131,2.972203e-01,-1.127723e-02,-1.038557e-02,2.432440e-01
132,2.968494e-01,-1.127616e-02,-1.038561e-02,2.440922e-01
133,2.963634e-01,-1.127475e-02,-1.038566e-02,2.449313e-01
134,2.957708e-01,-1.127304e-02,-1.038573e-02,2.457609e-01
135,2.950948e-01,-1.127108e-02,-1.038579e-02,2.465808e-01
136,2.943708e-01,-1.126897e-02,-1.038586e-02,2.473904e-01
137,2.936422e-01,-1.126684e-02,-1.038591e-02,2.481892e-01
138,2.929557e-01,-1.126483e-02,-1.038597e-02,2.489767e-01
139,2.923566e-01,-1.126309e-02,-1.038602e-02,2.497525e-01
140,2.918838e-01,-1.126172e-02,-1.038607e-02,2.505164e-01
141,2.915647e-01,-1.126082e-02,-1.038612e-02,2.512680e-01
142,2.914083e-01,-1.126040e-02,-1.038617e-02,2.520075e-01
143,2.913995e-01,-1.126042e-02,-1.038622e-02,2.527349e-01
144,2.914955e-01,-1.126076e-02,-1.038628e-02,2.534507e-01
145,2.916271e-01,-1.126122e-02,-1.038634e-02,2.541551e-01
146,2.917060e-01,-1.126154e-02,-1.038643e-02,2.548488e-01
147,2.916381e-01,-1.126142e-02,-1.038651e-02,2.555321e-01
148,2.913379e-01,-1.126060e-02,-1.038659e-02,2.562052e-01
149,2.907423e-01,-1.125889e-02,-1.038667e-02,2.568681e-01
150,2.898215e-01,-1.125620e-02,-1.038674e-02,2.575205e-01
151,2.885856e-01,-1.125255e-02,-1.038679e-02,2.581616e-01
152,2.870879e-01,-1.124812e-02,-1.038686e-02,2.587903e-01
153,2.854238e-01,-1.124318e-02,-1.038691e-02,2.594053e-01
154,2.837245e-01,-1.123814e-02,-1.038697e-02,2.600051e-01
155,2.821432e-01,-1.123346e-02,-1.038703e-02,2.605879e-01
156,2.808346e-01,-1.122959e-02,-1.038709e-02,2.611525e-01
157,2.799301e-01,-1.122695e-02,-1.038716e-02,2.616974e-01
158,2.795173e-01,-1.122578e-02,-1.038723e-02,2.622219e-01
159,2.796293e-01,-1.122619e-02,-1.038730e-02,2.627256e-01
160,2.802471e-01,-1.122812e-02,-1.038738e-02,2.632088e-01
161,2.813118e-01,-1.123138e-02,-1.038745e-02,2.636720e-01
162,2.827393e-01,-1.123575e-02,-1.038753e-02,2.641163e-01
163,2.844330e-01,-1.124090e-02,-1.038760e-02,2.645432e-01
164,2.862919e-01,-1.124654e-02,-1.038767e-02,2.649543e-01
165,2.882154e-01,-1.125238e-02,-1.038773e-02,2.653513e-01
166,2.901081e-01,-1.125812e-02,-1.038779e-02,2.657360e-01
167,2.918847e-01,-1.126351e-02,-1.038786e-02,2.661101e-01
168,2.934749e-01,-1.126836e-02,-1.038793e-02,2.664750e-01
169,2.948278e-01,-1.127250e-02,-1.038801e-02,2.668322e-01
170,2.959129e-01,-1.127583e-02,-1.038809e-02,2.671828e-01
171,2.967189e-01,-1.127833e-02,-1.038818e-02,2.675276e-01
172,2.972505e-01,-1.128001e-02,-1.038826e-02,2.678672e-01
173,2.975240e-01,-1.128091e-02,-1.038834e-02,2.682018e-01
174,2.975644e-01,-1.128110e-02,-1.038841e-02,2.685317e-01
175,2.974030e-01,-1.128068e-02,-1.038847e-02,2.688568e-01
176,2.970772e-01,-1.127975e-02,-1.038852e-02,2.691767e-01
177,2.966306e-01,-1.127847e-02,-1.038858e-02,2.694911e-01
178,2.961139e-01,-1.127697e-02,-1.038863e-02,2.697995e-01
179,2.955836e-01,-1.127542e-02,-1.038867e-02,2.701014e-01
180,2.950994e-01,-1.127400e-02,-1.038871e-02,2.703961e-01
181,2.947200e-01,-1.127289e-02,-1.038873e-02,2.706830e-01
182,2.944983e-01,-1.127224e-02,-1.038874e-02,2.709618e-01
183,2.944760e-01,-1.127218e-02,-1.038875e-02,2.712320e-01
184,2.946800e-01,-1.127280e-02,-1.038876e-02,2.714934e-01
185,2.951216e-01,-1.127414e-02,-1.038877e-02,2.717460e-01
186,2.957977e-01,-1.127619e-02,-1.038879e-02,2.719898e-01
187,2.966941e-01,-1.127890e-02,-1.038882e-02,2.722253e-01
188,2.977893e-01,-1.128221e-02,-1.038884e-02,2.724530e-01
189,2.990565e-01,-1.128604e-02,-1.038887e-02,2.726734e-01
190,3.004646e-01,-1.129030e-02,-1.038890e-02,2.728875e-01
191,3.019762e-01,-1.129488e-02,-1.038896e-02,2.730962e-01
192,3.035465e-01,-1.129966e-02,-1.038902e-02,2.733007e-01
193,3.051224e-01,-1.130446e-02,-1.038909e-02,2.735019e-01
194,3.066438e-01,-1.130910e-02,-1.038917e-02,2.737013e-01
195,3.080470e-01,-1.131337e-02,-1.038923e-02,2.738998e-01
196,3.092699e-01,-1.131711e-02,-1.038930e-02,2.740988e-01
197,3.102567e-01,-1.132016e-02,-1.038939e-02,2.742991e-01
198,3.109632e-01,-1.132235e-02,-1.038946e-02,2.745016e-01
199,3.113606e-01,-1.132360e-02,-1.038952e-02,2.747069e-01
200,3.499773e-01,-1.132360e-02,-1.027367e-02,2.749331e-01
201,3.494185e-01,-1.132199e-02,-1.027374e-02,2.751731e-01
202,3.483670e-01,-1.131891e-02,-1.027381e-02,2.754265e-01
203,3.468963e-01,-1.131456e-02,-1.027387e-02,2.756924e-01
204,3.451082e-01,-1.130924e-02,-1.027392e-02,2.759698e-01
205,3.431255e-01,-1.130335e-02,-1.027397e-02,2.762573e-01
206,3.410811e-01,-1.129726e-02,-1.027402e-02,2.765534e-01
207,3.391019e-01,-1.129136e-02,-1.027406e-02,2.768565e-01
208,3.372923e-01,-1.128597e-02,-1.027410e-02,2.771654e-01
209,3.357205e-01,-1.128130e-02,-1.027414e-02,2.774786e-01
210,3.344110e-01,-1.127741e-02,-1.027417e-02,2.777953e-01
211,3.333470e-01,-1.127424e-02,-1.027420e-02,2.781145e-01
212,3.324798e-01,-1.127168e-02,-1.027424e-02,2.784358e-01
213,3.317423e-01,-1.126950e-02,-1.027428e-02,2.787587e-01
214,3.310628e-01,-1.126750e-02,-1.027431e-02,2.790829e-01
215,3.303765e-01,-1.126545e-02,-1.027432e-02,2.794080e-01
216,3.296311e-01,-1.126321e-02,-1.027432e-02,2.797338e-01
217,3.287898e-01,-1.126068e-02,-1.027431e-02,2.800597e-01
218,3.278301e-01,-1.125779e-02,-1.027430e-02,2.803853e-01
219,3.267420e-01,-1.125452e-02,-1.027430e-02,2.807099e-01
220,3.255274e-01,-1.125088e-02,-1.027429e-02,2.810326e-01
221,3.242013e-01,-1.124689e-02,-1.027429e-02,2.813525e-01
222,3.227963e-01,-1.124265e-02,-1.027427e-02,2.816686e-01
223,3.213665e-01,-1.123834e-02,-1.027424e-02,2.819796e-01
224,3.199890e-01,-1.123419e-02,-1.027422e-02,2.822843e-01
225,3.187592e-01,-1.123049e-02,-1.027421e-02,2.825814e-01
226,3.177806e-01,-1.122754e-02,-1.027420e-02,2.828695e-01
227,3.171518e-01,-1.122565e-02,-1.027420e-02,2.831478e-01
228,3.169533e-01,-1.122507e-02,-1.027421e-02,2.834152e-01
229,3.172379e-01,-1.122596e-02,-1.027424e-02,2.836714e-01
230,3.180258e-01,-1.122836e-02,-1.027428e-02,2.839161e-01
231,3.193027e-01,-1.123223e-02,-1.027432e-02,2.841496e-01
232,3.210206e-01,-1.123741e-02,-1.027435e-02,2.843726e-01
233,3.231013e-01,-1.124367e-02,-1.027437e-02,2.845861e-01
234,3.254426e-01,-1.125072e-02,-1.027439e-02,2.847915e-01
235,3.279268e-01,-1.125821e-02,-1.027442e-02,2.849905e-01
236,3.304313e-01,-1.126575e-02,-1.027446e-02,2.851848e-01
237,3.328402e-01,-1.127300e-02,-1.027448e-02,2.853764e-01
238,3.350537e-01,-1.127968e-02,-1.027452e-02,2.855670e-01
239,3.369944e-01,-1.128556e-02,-1.027457e-02,2.857585e-01
240,3.386084e-01,-1.129046e-02,-1.027463e-02,2.859525e-01
241,3.398631e-01,-1.129427e-02,-1.027468e-02,2.861503e-01
242,3.407421e-01,-1.129694e-02,-1.027471e-02,2.863532e-01
243,3.412390e-01,-1.129847e-02,-1.027475e-02,2.865620e-01
244,3.413535e-01,-1.129887e-02,-1.027481e-02,2.867773e-01
245,3.410892e-01,-1.129813e-02,-1.027487e-02,2.869997e-01
246,3.404553e-01,-1.129628e-02,-1.027492e-02,2.872292e-01
247,3.394709e-01,-1.129337e-02,-1.027496e-02,2.874655e-01
248,3.381699e-01,-1.128953e-02,-1.027502e-02,2.877084e-01
249,3.366053e-01,-1.128489e-02,-1.027507e-02,2.879570e-01
250,3.348496e-01,-1.127967e-02,-1.027512e-02,2.882104e-01
251,3.329914e-01,-1.127414e-02,-1.027517e-02,2.884675e-01
252,3.311270e-01,-1.126859e-02,-1.027521e-02,2.887271e-01
253,3.293496e-01,-1.126331e-02,-1.027526e-02,2.889881e-01
254,3.277400e-01,-1.125854e-02,-1.027532e-02,2.892492e-01
255,3.263593e-01,-1.125446e-02,-1.027538e-02,2.895095e-01
256,3.252466e-01,-1.125118e-02,-1.027544e-02,2.897683e-01
257,3.244189e-01,-1.124878e-02,-1.027553e-02,2.900249e-01
258,3.238734e-01,-1.124723e-02,-1.027561e-02,2.902792e-01
259,3.235906e-01,-1.124647e-02,-1.027570e-02,2.905310e-01
260,3.235365e-01,-1.124639e-02,-1.027578e-02,2.907805e-01
261,3.236667e-01,-1.124687e-02,-1.027587e-02,2.910280e-01
262,3.239296e-01,-1.124775e-02,-1.027596e-02,2.912740e-01
263,3.242721e-01,-1.124887e-02,-1.027605e-02,2.915189e-01
264,3.246450e-01,-1.125008e-02,-1.027614e-02,2.917634e-01
265,3.250082e-01,-1.125125e-02,-1.027623e-02,2.920080e-01
266,3.253353e-01,-1.125230e-02,-1.027630e-02,2.922530e-01
267,3.256144e-01,-1.125321e-02,-1.027637e-02,2.924989e-01
268,3.258466e-01,-1.125399e-02,-1.027645e-02,2.927459e-01
269,3.260408e-01,-1.125465e-02,-1.027653e-02,2.929942e-01
270,3.262073e-01,-1.125524e-02,-1.027662e-02,2.932438e-01
271,3.263521e-01,-1.125576e-02,-1.027670e-02,2.934947e-01
272,3.264750e-01,-1.125621e-02,-1.027678e-02,2.937469e-01
273,3.265716e-01,-1.125658e-02,-1.027686e-02,2.940003e-01
274,3.266391e-01,-1.125686e-02,-1.027695e-02,2.942549e-01
275,3.266821e-01,-1.125708e-02,-1.027704e-02,2.945104e-01
276,3.267165e-01,-1.125730e-02,-1.027715e-02,2.947667e-01
277,3.267686e-01,-1.125758e-02,-1.027728e-02,2.950235e-01
278,3.268698e-01,-1.125802e-02,-1.027741e-02,2.952808e-01
279,3.270492e-01,-1.125869e-02,-1.027755e-02,2.955383e-01
280,3.273270e-01,-1.125965e-02,-1.027767e-02,2.957959e-01
281,3.277103e-01,-1.126093e-02,-1.027780e-02,2.960537e-01
282,3.281932e-01,-1.126253e-02,-1.027795e-02,2.963117e-01
283,3.287585e-01,-1.126436e-02,-1.027809e-02,2.965702e-01
284,3.293810e-01,-1.126636e-02,-1.027822e-02,2.968294e-01
285,3.300315e-01,-1.126844e-02,-1.027834e-02,2.970898e-01
286,3.306779e-01,-1.127051e-02,-1.027848e-02,2.973517e-01
287,3.312878e-01,-1.127249e-02,-1.027863e-02,2.976154e-01
288,3.318293e-01,-1.127427e-02,-1.027878e-02,2.978815e-01
289,3.322739e-01,-1.127576e-02,-1.027894e-02,2.981501e-01
290,3.326000e-01,-1.127691e-02,-1.027911e-02,2.984216e-01
291,3.327975e-01,-1.127769e-02,-1.027930e-02,2.986960e-01
292,3.328710e-01,-1.127808e-02,-1.027947e-02,2.989735e-01
293,3.328425e-01,-1.127818e-02,-1.027966e-02,2.992539e-01
294,3.327506e-01,-1.127810e-02,-1.027985e-02,2.995370e-01
295,3.326460e-01,-1.127797e-02,-1.028003e-02,2.998227e-01
296,3.325867e-01,-1.127797e-02,-1.028021e-02,3.001108e-01
297,3.326295e-01,-1.127828e-02,-1.028039e-02,3.004012e-01
298,3.328237e-01,-1.127904e-02,-1.028057e-02,3.006938e-01
299,3.332038e-01,-1.128036e-02,-1.028074e-02,3.009888e-01
300,3.337850e-01,-1.128228e-02,-1.028092e-02,3.012864e-01
301,3.345606e-01,-1.128479e-02,-1.028111e-02,3.015874e-01
302,3.355010e-01,-1.128781e-02,-1.028131e-02,3.018922e-01
303,3.365559e-01,-1.129116e-02,-1.028150e-02,3.022019e-01
304,3.376580e-01,-1.129465e-02,-1.028168e-02,3.025172e-01
305,3.387292e-01,-1.129804e-02,-1.028185e-02,3.028393e-01
306,3.396892e-01,-1.130108e-02,-1.028201e-02,3.031691e-01
307,3.404645e-01,-1.130357e-02,-1.028218e-02,3.035073e-01
308,3.409990e-01,-1.130535e-02,-1.028235e-02,3.038547e-01
309,3.412618e-01,-1.130629e-02,-1.028251e-02,3.042117e-01
310,3.412526e-01,-1.130640e-02,-1.028264e-02,3.045784e-01
311,3.410022e-01,-1.130577e-02,-1.028277e-02,3.049549e-01
312,3.405677e-01,-1.130458e-02,-1.028287e-02,3.053408e-01
313,3.400235e-01,-1.130305e-02,-1.028298e-02,3.057357e-01
314,3.394491e-01,-1.130143e-02,-1.028308e-02,3.061391e-01
315,3.389183e-01,-1.129997e-02,-1.028321e-02,3.065504e-01
316,3.384894e-01,-1.129880e-02,-1.028333e-02,3.069692e-01
317,3.382014e-01,-1.129806e-02,-1.028345e-02,3.073951e-01
318,3.380738e-01,-1.129778e-02,-1.028356e-02,3.078276e-01
319,3.381101e-01,-1.129799e-02,-1.028366e-02,3.082667e-01
320,3.383020e-01,-1.129870e-02,-1.028379e-02,3.087120e-01
321,3.386334e-01,-1.129983e-02,-1.028393e-02,3.091637e-01
322,3.390823e-01,-1.130132e-02,-1.028407e-02,3.096218e-01
323,3.396216e-01,-1.130308e-02,-1.028422e-02,3.100862e-01
324,3.402185e-01,-1.130502e-02,-1.028436e-02,3.105572e-01
325,3.408341e-01,-1.130700e-02,-1.028450e-02,3.110347e-01
326,3.414251e-01,-1.130891e-02,-1.028463e-02,3.115190e-01
327,3.419461e-01,-1.131059e-02,-1.028475e-02,3.120099e-01
328,3.423541e-01,-1.131194e-02,-1.028488e-02,3.125075e-01
329,3.426141e-01,-1.131285e-02,-1.028501e-02,3.130116e-01
330,3.427023e-01,-1.131325e-02,-1.028514e-02,3.135220e-01
331,3.426064e-01,-1.131311e-02,-1.028529e-02,3.140384e-01
332,3.423228e-01,-1.131242e-02,-1.028545e-02,3.145601e-01
333,3.418516e-01,-1.131118e-02,-1.028563e-02,3.150868e-01
334,3.411925e-01,-1.130939e-02,-1.028581e-02,3.156177e-01
335,3.403451e-01,-1.130702e-02,-1.028599e-02,3.161521e-01
336,3.393127e-01,-1.130411e-02,-1.028617e-02,3.166891e-01
337,3.381102e-01,-1.130068e-02,-1.028635e-02,3.172278e-01
338,3.367712e-01,-1.129684e-02,-1.028653e-02,3.177671e-01
339,3.353528e-01,-1.129275e-02,-1.028669e-02,3.183058e-01
340,3.339357e-01,-1.128866e-02,-1.028686e-02,3.188428e-01
341,3.326166e-01,-1.128487e-02,-1.028702e-02,3.193766e-01
342,3.314957e-01,-1.128167e-02,-1.028718e-02,3.199063e-01
343,3.306621e-01,-1.127933e-02,-1.028735e-02,3.204306e-01
344,3.301810e-01,-1.127807e-02,-1.028752e-02,3.209487e-01
