TimeStep,Temp,PotEnergy,TotEnergy,MeanSqDisp
0,8.492267e-01,-1.299173e-02,-1.044405e-02,7.984360e-03
1,8.468755e-01,-1.298439e-02,-1.044376e-02,1.596145e-02
2,8.428508e-01,-1.297184e-02,-1.044329e-02,2.392370e-02
3,8.369911e-01,-1.295360e-02,-1.044263e-02,3.186287e-02
4,8.290707e-01,-1.292901e-02,-1.044180e-02,3.976971e-02
5,8.188022e-01,-1.289734e-02,-1.044094e-02,4.763362e-02
6,8.058462e-01,-1.285766e-02,-1.044012e-02,5.544226e-02
7,7.898294e-01,-1.280883e-02,-1.043934e-02,6.318115e-02
8,7.703782e-01,-1.274973e-02,-1.043860e-02,7.083333e-02
9,7.471721e-01,-1.267937e-02,-1.043786e-02,7.837909e-02
10,7.200252e-01,-1.259716e-02,-1.043709e-02,8.579585e-02
11,6.889903e-01,-1.250328e-02,-1.043631e-02,9.305824e-02
12,6.544688e-01,-1.239889e-02,-1.043549e-02,1.001386e-01
13,6.172837e-01,-1.228644e-02,-1.043459e-02,1.070082e-01
14,5.786695e-01,-1.216970e-02,-1.043369e-02,1.136383e-01
15,5.401572e-01,-1.205327e-02,-1.043280e-02,1.200025e-01
16,5.033875e-01,-1.194214e-02,-1.043198e-02,1.260781e-01
17,4.699076e-01,-1.184097e-02,-1.043125e-02,1.318482e-01
18,4.409945e-01,-1.175363e-02,-1.043065e-02,1.373023e-01
19,4.175203e-01,-1.168275e-02,-1.043019e-02,1.424371e-01
20,3.998779e-01,-1.162950e-02,-1.042987e-02,1.472563e-01
21,3.879855e-01,-1.159360e-02,-1.042965e-02,1.517699e-01
22,3.813649e-01,-1.157360e-02,-1.042950e-02,1.559933e-01
23,3.792667e-01,-1.156720e-02,-1.042940e-02,1.599457e-01
24,3.808043e-01,-1.157175e-02,-1.042934e-02,1.636489e-01
25,3.850668e-01,-1.158449e-02,-1.042929e-02,1.671260e-01
26,3.911966e-01,-1.160285e-02,-1.042926e-02,1.704001e-01
27,3.984342e-01,-1.162452e-02,-1.042921e-02,1.734939e-01
28,4.061348e-01,-1.164756e-02,-1.042916e-02,1.764286e-01
29,4.137704e-01,-1.167040e-02,-1.042909e-02,1.792237e-01
30,4.209231e-01,-1.169178e-02,-1.042901e-02,1.818968e-01
31,4.272766e-01,-1.171075e-02,-1.042892e-02,1.844633e-01
32,4.326079e-01,-1.172665e-02,-1.042882e-02,1.869362e-01
33,4.367795e-01,-1.173905e-02,-1.042871e-02,1.893264e-01
34,4.397332e-01,-1.174779e-02,-1.042859e-02,1.916428e-01
35,4.414851e-01,-1.175292e-02,-1.042847e-02,1.938921e-01
36,4.421226e-01,-1.175471e-02,-1.042835e-02,1.960791e-01
37,4.418008e-01,-1.175363e-02,-1.042822e-02,1.982071e-01
38,4.407343e-01,-1.175032e-02,-1.042812e-02,2.002780e-01
39,4.391806e-01,-1.174555e-02,-1.042800e-02,2.022926e-01
40,4.374135e-01,-1.174015e-02,-1.042791e-02,2.042513e-01
41,4.356921e-01,-1.173490e-02,-1.042782e-02,2.061539e-01
42,4.342292e-01,-1.173047e-02,-1.042778e-02,2.080005e-01
43,4.331713e-01,-1.172726e-02,-1.042775e-02,2.097910e-01
44,4.325931e-01,-1.172551e-02,-1.042773e-02,2.115261e-01
45,4.325071e-01,-1.172523e-02,-1.042771e-02,2.132069e-01
46,4.328833e-01,-1.172634e-02,-1.042769e-02,2.148347e-01
47,4.336696e-01,-1.172870e-02,-1.042769e-02,2.164113e-01
48,4.348080e-01,-1.173212e-02,-1.042770e-02,2.179389e-01
49,4.362401e-01,-1.173644e-02,-1.042772e-02,2.194198e-01
50,4.379065e-01,-1.174148e-02,-1.042776e-02,2.208567e-01
51,4.397417e-01,-1.174703e-02,-1.042780e-02,2.222525e-01
52,4.416722e-01,-1.175287e-02,-1.042785e-02,2.236101e-01
53,4.436203e-01,-1.175876e-02,-1.042790e-02,2.249328e-01
54,4.455108e-01,-1.176447e-02,-1.042794e-02,2.262237e-01
55,4.472793e-01,-1.176983e-02,-1.042800e-02,2.274860e-01
56,4.488738e-01,-1.177467e-02,-1.042805e-02,2.287228e-01
57,4.502518e-01,-1.177886e-02,-1.042811e-02,2.299369e-01
58,4.513733e-01,-1.178229e-02,-1.042817e-02,2.311307e-01
59,4.521960e-01,-1.178481e-02,-1.042822e-02,2.323065e-01
60,4.526776e-01,-1.178631e-02,-1.042828e-02,2.334661e-01
61,4.527862e-01,-1.178668e-02,-1.042832e-02,2.346109e-01
62,4.525160e-01,-1.178592e-02,-1.042837e-02,2.357417e-01
63,4.519002e-01,-1.178413e-02,-1.042843e-02,2.368590e-01
64,4.510129e-01,-1.178153e-02,-1.042849e-02,2.379626e-01
65,4.499547e-01,-1.177841e-02,-1.042854e-02,2.390524e-01
66,4.488279e-01,-1.177509e-02,-1.042861e-02,2.401276e-01
67,4.477110e-01,-1.177182e-02,-1.042868e-02,2.411875e-01
68,4.466446e-01,-1.176871e-02,-1.042877e-02,2.422314e-01
69,4.456302e-01,-1.176576e-02,-1.042887e-02,2.432588e-01
70,4.446398e-01,-1.176288e-02,-1.042896e-02,2.442690e-01
71,4.436280e-01,-1.175992e-02,-1.042903e-02,2.452617e-01
72,4.425456e-01,-1.175674e-02,-1.042910e-02,2.462363e-01
73,4.413513e-01,-1.175322e-02,-1.042916e-02,2.471924e-01
74,4.400196e-01,-1.174925e-02,-1.042919e-02,2.481295e-01
75,4.385416e-01,-1.174482e-02,-1.042920e-02,2.490471e-01
76,4.369206e-01,-1.173995e-02,-1.042918e-02,2.499443e-01
77,4.351664e-01,-1.173466e-02,-1.042916e-02,2.508206e-01
78,4.332985e-01,-1.172903e-02,-1.042913e-02,2.516750e-01
79,4.313611e-01,-1.172318e-02,-1.042910e-02,2.525066e-01
80,4.294442e-01,-1.171739e-02,-1.042905e-02,2.533143e-01
81,4.276940e-01,-1.171208e-02,-1.042899e-02,2.540972e-01
82,4.263007e-01,-1.170783e-02,-1.042893e-02,2.548543e-01
83,4.254613e-01,-1.170527e-02,-1.042889e-02,2.555850e-01
84,4.253304e-01,-1.170486e-02,-1.042887e-02,2.562891e-01
85,4.259765e-01,-1.170679e-02,-1.042886e-02,2.569672e-01
86,4.273588e-01,-1.171095e-02,-1.042888e-02,2.576200e-01
87,4.293382e-01,-1.171691e-02,-1.042889e-02,2.582493e-01
88,4.317199e-01,-1.172406e-02,-1.042890e-02,2.588568e-01
89,4.343120e-01,-1.173183e-02,-1.042889e-02,2.594446e-01
90,4.369704e-01,-1.173978e-02,-1.042886e-02,2.600149e-01
91,4.396128e-01,-1.174767e-02,-1.042884e-02,2.605695e-01
92,4.422042e-01,-1.175541e-02,-1.042879e-02,2.611104e-01
93,4.447286e-01,-1.176294e-02,-1.042876e-02,2.616393e-01
94,4.471637e-01,-1.177022e-02,-1.042873e-02,2.621579e-01
95,4.494668e-01,-1.177712e-02,-1.042872e-02,2.626678e-01
96,4.515743e-01,-1.178343e-02,-1.042870e-02,2.631707e-01
97,4.534125e-01,-1.178893e-02,-1.042869e-02,2.636678e-01
98,4.549193e-01,-1.179342e-02,-1.042867e-02,2.641604e-01
99,4.560696e-01,-1.179685e-02,-1.042864e-02,2.646494e-01
100,8.495326e-01,-1.179536e-02,-9.246766e-03,2.653688e-01
101,8.456361e-01,-1.178355e-02,-9.246637e-03,2.661942e-01
102,8.387203e-01,-1.176265e-02,-9.246492e-03,2.671211e-01
103,8.293351e-01,-1.173437e-02,-9.246368e-03,2.681427e-01
104,8.180828e-01,-1.170052e-02,-9.246273e-03,2.692501e-01
105,8.055279e-01,-1.166278e-02,-9.246195e-03,2.704333e-01
106,7.921357e-01,-1.162257e-02,-9.246164e-03,2.716815e-01
107,7.782626e-01,-1.158094e-02,-9.246150e-03,2.729838e-01
108,7.641888e-01,-1.153868e-02,-9.246117e-03,2.743288e-01
109,7.501669e-01,-1.149656e-02,-9.246062e-03,2.757055e-01
110,7.364608e-01,-1.145540e-02,-9.246017e-03,2.771030e-01
111,7.233594e-01,-1.141603e-02,-9.245955e-03,2.785107e-01
112,7.111616e-01,-1.137940e-02,-9.245916e-03,2.799186e-01
113,7.001439e-01,-1.134631e-02,-9.245877e-03,2.813173e-01
114,6.905333e-01,-1.131746e-02,-9.245855e-03,2.826987e-01
115,6.825107e-01,-1.129339e-02,-9.245861e-03,2.840554e-01
116,6.762408e-01,-1.127459e-02,-9.245870e-03,2.853818e-01
117,6.718942e-01,-1.126157e-02,-9.245883e-03,2.866733e-01
118,6.696163e-01,-1.125475e-02,-9.245898e-03,2.879273e-01
119,6.694408e-01,-1.125426e-02,-9.245933e-03,2.891426e-01
120,6.711995e-01,-1.125960e-02,-9.245998e-03,2.903201e-01
121,6.744956e-01,-1.126959e-02,-9.246104e-03,2.914623e-01
122,6.787616e-01,-1.128248e-02,-9.246195e-03,2.925727e-01
123,6.833679e-01,-1.129637e-02,-9.246264e-03,2.936558e-01
124,6.877279e-01,-1.130952e-02,-9.246340e-03,2.947159e-01
125,6.913676e-01,-1.132050e-02,-9.246394e-03,2.957570e-01
126,6.939597e-01,-1.132834e-02,-9.246456e-03,2.967823e-01
127,6.953382e-01,-1.133252e-02,-9.246510e-03,2.977939e-01
128,6.954986e-01,-1.133303e-02,-9.246531e-03,2.987928e-01
129,6.945878e-01,-1.133031e-02,-9.246544e-03,2.997789e-01
130,6.928760e-01,-1.132519e-02,-9.246561e-03,3.007512e-01
131,6.907054e-01,-1.131871e-02,-9.246594e-03,3.017079e-01
132,6.884169e-01,-1.131192e-02,-9.246673e-03,3.026471e-01
133,6.862821e-01,-1.130564e-02,-9.246791e-03,3.035669e-01
134,6.844732e-01,-1.130036e-02,-9.246937e-03,3.044654e-01
135,6.830901e-01,-1.129636e-02,-9.247085e-03,3.053416e-01
136,6.822209e-01,-1.129387e-02,-9.247203e-03,3.061946e-01
137,6.819931e-01,-1.129327e-02,-9.247295e-03,3.070243e-01
138,6.825850e-01,-1.129513e-02,-9.247372e-03,3.078313e-01
139,6.841977e-01,-1.130005e-02,-9.247456e-03,3.086168e-01
140,6.870009e-01,-1.130855e-02,-9.247546e-03,3.093829e-01
141,6.910527e-01,-1.132083e-02,-9.247670e-03,3.101328e-01
142,6.961985e-01,-1.133643e-02,-9.247837e-03,3.108706e-01
143,7.020099e-01,-1.135407e-02,-9.248040e-03,3.116014e-01
144,7.078440e-01,-1.137180e-02,-9.248272e-03,3.123307e-01
145,7.130067e-01,-1.138752e-02,-9.248500e-03,3.130641e-01
146,7.169093e-01,-1.139942e-02,-9.248693e-03,3.138067e-01
147,7.191436e-01,-1.140629e-02,-9.248862e-03,3.145625e-01
148,7.194803e-01,-1.140745e-02,-9.249010e-03,3.153342e-01
149,7.178397e-01,-1.140263e-02,-9.249113e-03,3.161231e-01
150,7.142729e-01,-1.139200e-02,-9.249185e-03,3.169290e-01
151,7.089713e-01,-1.137612e-02,-9.249208e-03,3.177499e-01
152,7.022892e-01,-1.135602e-02,-9.249152e-03,3.185828e-01
153,6.947488e-01,-1.133331e-02,-9.249059e-03,3.194232e-01
154,6.869974e-01,-1.130997e-02,-9.248982e-03,3.202663e-01
155,6.797058e-01,-1.128803e-02,-9.248917e-03,3.211066e-01
156,6.734277e-01,-1.126920e-02,-9.248918e-03,3.219394e-01
157,6.684715e-01,-1.125439e-02,-9.248979e-03,3.227608e-01
158,6.648523e-01,-1.124362e-02,-9.249062e-03,3.235680e-01
159,6.623486e-01,-1.123619e-02,-9.249143e-03,3.243593e-01
160,6.606254e-01,-1.123108e-02,-9.249201e-03,3.251340e-01
161,6.593488e-01,-1.122727e-02,-9.249226e-03,3.258920e-01
162,6.582459e-01,-1.122399e-02,-9.249248e-03,3.266335e-01
163,6.571164e-01,-1.122060e-02,-9.249252e-03,3.273586e-01
164,6.558370e-01,-1.121671e-02,-9.249203e-03,3.280675e-01
165,6.543845e-01,-1.121227e-02,-9.249113e-03,3.287602e-01
166,6.528478e-01,-1.120753e-02,-9.248982e-03,3.294363e-01
167,6.513904e-01,-1.120302e-02,-9.248848e-03,3.300953e-01
168,6.501656e-01,-1.119921e-02,-9.248711e-03,3.307366e-01
169,6.492443e-01,-1.119633e-02,-9.248594e-03,3.313598e-01
170,6.486005e-01,-1.119426e-02,-9.248463e-03,3.319644e-01
171,6.481554e-01,-1.119279e-02,-9.248323e-03,3.325502e-01
172,6.478405e-01,-1.119169e-02,-9.248166e-03,3.331168e-01
173,6.476409e-01,-1.119092e-02,-9.247996e-03,3.336638e-01
174,6.475982e-01,-1.119060e-02,-9.247808e-03,3.341910e-01
175,6.477789e-01,-1.119097e-02,-9.247635e-03,3.346980e-01
176,6.482302e-01,-1.119219e-02,-9.247496e-03,3.351848e-01
177,6.489506e-01,-1.119424e-02,-9.247392e-03,3.356515e-01
178,6.498928e-01,-1.119696e-02,-9.247280e-03,3.360984e-01
179,6.509963e-01,-1.120018e-02,-9.247193e-03,3.365262e-01
180,6.522308e-01,-1.120380e-02,-9.247109e-03,3.369357e-01
181,6.536247e-01,-1.120790e-02,-9.247027e-03,3.373278e-01
182,6.552636e-01,-1.121273e-02,-9.246935e-03,3.377036e-01
183,6.572631e-01,-1.121864e-02,-9.246849e-03,3.380643e-01
184,6.597266e-01,-1.122596e-02,-9.246779e-03,3.384116e-01
185,6.627013e-01,-1.123484e-02,-9.246732e-03,3.387472e-01
186,6.661440e-01,-1.124517e-02,-9.246742e-03,3.390734e-01
187,6.699102e-01,-1.125651e-02,-9.246779e-03,3.393927e-01
188,6.737691e-01,-1.126813e-02,-9.246822e-03,3.397077e-01
189,6.774299e-01,-1.127915e-02,-9.246858e-03,3.400211e-01
190,6.805672e-01,-1.128859e-02,-9.246886e-03,3.403350e-01
191,6.828471e-01,-1.129546e-02,-9.246923e-03,3.406514e-01
192,6.839782e-01,-1.129887e-02,-9.246938e-03,3.409712e-01
193,6.837989e-01,-1.129829e-02,-9.246897e-03,3.412948e-01
194,6.823741e-01,-1.129392e-02,-9.246797e-03,3.416214e-01
195,6.800398e-01,-1.128680e-02,-9.246679e-03,3.419492e-01
196,6.773427e-01,-1.127856e-02,-9.246528e-03,3.422761e-01
197,6.748778e-01,-1.127104e-02,-9.246411e-03,3.425998e-01
198,6.731119e-01,-1.126566e-02,-9.246325e-03,3.429181e-01
199,6.722972e-01,-1.126319e-02,-9.246302e-03,3.432297e-01
200,8.492425e-01,-1.126091e-02,-8.713184e-03,3.435916e-01
201,8.476964e-01,-1.125628e-02,-8.713191e-03,3.439842e-01
202,8.454808e-01,-1.124968e-02,-8.713242e-03,3.444066e-01
203,8.427602e-01,-1.124158e-02,-8.713301e-03,3.448571e-01
204,8.397029e-01,-1.123247e-02,-8.713365e-03,3.453342e-01
205,8.364568e-01,-1.122281e-02,-8.713435e-03,3.458356e-01
206,8.331393e-01,-1.121294e-02,-8.713523e-03,3.463595e-01
207,8.298219e-01,-1.120310e-02,-8.713629e-03,3.469035e-01
208,8.265101e-01,-1.119328e-02,-8.713750e-03,3.474654e-01
209,8.231484e-01,-1.118329e-02,-8.713844e-03,3.480429e-01
210,8.196697e-01,-1.117289e-02,-8.713881e-03,3.486339e-01
211,8.160527e-01,-1.116206e-02,-8.713901e-03,3.492359e-01
212,8.123335e-01,-1.115089e-02,-8.713894e-03,3.498470e-01
213,8.085691e-01,-1.113960e-02,-8.713894e-03,3.504649e-01
214,8.048011e-01,-1.112830e-02,-8.713898e-03,3.510880e-01
215,8.010583e-01,-1.111706e-02,-8.713890e-03,3.517145e-01
216,7.973959e-01,-1.110605e-02,-8.713859e-03,3.523431e-01
217,7.939492e-01,-1.109565e-02,-8.713801e-03,3.529721e-01
218,7.909646e-01,-1.108661e-02,-8.713718e-03,3.536002e-01
219,7.887669e-01,-1.107997e-02,-8.713667e-03,3.542263e-01
220,7.876588e-01,-1.107663e-02,-8.713651e-03,3.548496e-01
221,7.878042e-01,-1.107710e-02,-8.713684e-03,3.554697e-01
222,7.891606e-01,-1.108122e-02,-8.713735e-03,3.560873e-01
223,7.914852e-01,-1.108826e-02,-8.713800e-03,3.567035e-01
224,7.943870e-01,-1.109705e-02,-8.713887e-03,3.573202e-01
225,7.973984e-01,-1.110617e-02,-8.713973e-03,3.579397e-01
226,8.000587e-01,-1.111425e-02,-8.714070e-03,3.585641e-01
227,8.019936e-01,-1.112011e-02,-8.714127e-03,3.591955e-01
228,8.029590e-01,-1.112302e-02,-8.714141e-03,3.598352e-01
229,8.028359e-01,-1.112263e-02,-8.714127e-03,3.604841e-01
230,8.015869e-01,-1.111888e-02,-8.714122e-03,3.611424e-01
231,7.992056e-01,-1.111174e-02,-8.714120e-03,3.618093e-01
232,7.956929e-01,-1.110122e-02,-8.714144e-03,3.624840e-01
233,7.910768e-01,-1.108740e-02,-8.714168e-03,3.631644e-01
234,7.854653e-01,-1.107058e-02,-8.714183e-03,3.638483e-01
235,7.790965e-01,-1.105149e-02,-8.714201e-03,3.645327e-01
236,7.723486e-01,-1.103128e-02,-8.714231e-03,3.652142e-01
237,7.656828e-01,-1.101131e-02,-8.714258e-03,3.658890e-01
238,7.595253e-01,-1.099291e-02,-8.714338e-03,3.665536e-01
239,7.541442e-01,-1.097690e-02,-8.714470e-03,3.672047e-01
240,7.496006e-01,-1.096343e-02,-8.714630e-03,3.678398e-01
241,7.458234e-01,-1.095227e-02,-8.714801e-03,3.684566e-01
242,7.427648e-01,-1.094326e-02,-8.714969e-03,3.690536e-01
243,7.405062e-01,-1.093666e-02,-8.715143e-03,3.696296e-01
244,7.392008e-01,-1.093291e-02,-8.715309e-03,3.701838e-01
245,7.389190e-01,-1.093222e-02,-8.715465e-03,3.707160e-01
246,7.396061e-01,-1.093441e-02,-8.715589e-03,3.712270e-01
247,7.412132e-01,-1.093929e-02,-8.715647e-03,3.717179e-01
248,7.438158e-01,-1.094708e-02,-8.715632e-03,3.721904e-01
249,7.475419e-01,-1.095822e-02,-8.715593e-03,3.726470e-01
250,7.523728e-01,-1.097271e-02,-8.715588e-03,3.730903e-01
251,7.580057e-01,-1.098959e-02,-8.715574e-03,3.735240e-01
252,7.638779e-01,-1.100721e-02,-8.715574e-03,3.739520e-01
253,7.693163e-01,-1.102349e-02,-8.715543e-03,3.743785e-01
254,7.737144e-01,-1.103659e-02,-8.715450e-03,3.748075e-01
255,7.766629e-01,-1.104531e-02,-8.715318e-03,3.752421e-01
256,7.780036e-01,-1.104916e-02,-8.715145e-03,3.756849e-01
257,7.778042e-01,-1.104834e-02,-8.714924e-03,3.761370e-01
258,7.762784e-01,-1.104356e-02,-8.714723e-03,3.765990e-01
259,7.736946e-01,-1.103561e-02,-8.714531e-03,3.770702e-01
260,7.703177e-01,-1.102528e-02,-8.714330e-03,3.775494e-01
261,7.664105e-01,-1.101333e-02,-8.714103e-03,3.780347e-01
262,7.622711e-01,-1.100067e-02,-8.713862e-03,3.785236e-01
263,7.582603e-01,-1.098842e-02,-8.713634e-03,3.790136e-01
264,7.547826e-01,-1.097777e-02,-8.713423e-03,3.795018e-01
265,7.522397e-01,-1.096994e-02,-8.713219e-03,3.799860e-01
266,7.509914e-01,-1.096599e-02,-8.713015e-03,3.804642e-01
267,7.513281e-01,-1.096681e-02,-8.712828e-03,3.809355e-01
268,7.534214e-01,-1.097295e-02,-8.712687e-03,3.813998e-01
269,7.572437e-01,-1.098435e-02,-8.712615e-03,3.818581e-01
270,7.624993e-01,-1.100013e-02,-8.712633e-03,3.823124e-01
271,7.686301e-01,-1.101857e-02,-8.712679e-03,3.827656e-01
272,7.749141e-01,-1.103747e-02,-8.712728e-03,3.832211e-01
273,7.806217e-01,-1.105463e-02,-8.712762e-03,3.836824e-01
274,7.851764e-01,-1.106832e-02,-8.712787e-03,3.841531e-01
275,7.882748e-01,-1.107759e-02,-8.712768e-03,3.846360e-01
276,7.899212e-01,-1.108247e-02,-8.712706e-03,3.851332e-01
277,7.903508e-01,-1.108367e-02,-8.712617e-03,3.856460e-01
278,7.898625e-01,-1.108215e-02,-8.712567e-03,3.861747e-01
279,7.886630e-01,-1.107855e-02,-8.712563e-03,3.867196e-01
280,7.868371e-01,-1.107307e-02,-8.712557e-03,3.872801e-01
281,7.844546e-01,-1.106590e-02,-8.712534e-03,3.878557e-01
282,7.816915e-01,-1.105756e-02,-8.712485e-03,3.884452e-01
283,7.788283e-01,-1.104894e-02,-8.712458e-03,3.890474e-01
284,7.761047e-01,-1.104081e-02,-8.712494e-03,3.896611e-01
285,7.735396e-01,-1.103323e-02,-8.712610e-03,3.902852e-01
286,7.708624e-01,-1.102535e-02,-8.712764e-03,3.909190e-01
287,7.676165e-01,-1.101576e-02,-8.712907e-03,3.915616e-01
288,7.633813e-01,-1.100313e-02,-8.712988e-03,3.922122e-01
289,7.579964e-01,-1.098697e-02,-8.712982e-03,3.928692e-01
290,7.516921e-01,-1.096795e-02,-8.712873e-03,3.935302e-01
291,7.450776e-01,-1.094795e-02,-8.712719e-03,3.941920e-01
292,7.389960e-01,-1.092953e-02,-8.712546e-03,3.948509e-01
293,7.343065e-01,-1.091536e-02,-8.712439e-03,3.955029e-01
294,7.316790e-01,-1.090742e-02,-8.712387e-03,3.961444e-01
295,7.314450e-01,-1.090673e-02,-8.712399e-03,3.967732e-01
296,7.335289e-01,-1.091306e-02,-8.712469e-03,3.973880e-01
297,7.374934e-01,-1.092505e-02,-8.712570e-03,3.979895e-01
298,7.427059e-01,-1.094079e-02,-8.712671e-03,3.985791e-01
299,7.485567e-01,-1.095842e-02,-8.712753e-03,3.991591e-01
300,8.558157e-01,-1.097589e-02,-8.408439e-03,3.997794e-01
301,8.603845e-01,-1.098958e-02,-8.408422e-03,4.004137e-01
302,8.637066e-01,-1.099954e-02,-8.408420e-03,4.010633e-01
303,8.657890e-01,-1.100583e-02,-8.408460e-03,4.017290e-01
304,8.665717e-01,-1.100823e-02,-8.408516e-03,4.024107e-01
305,8.659754e-01,-1.100647e-02,-8.408546e-03,4.031077e-01
306,8.640130e-01,-1.100058e-02,-8.408543e-03,4.038187e-01
307,8.608758e-01,-1.099113e-02,-8.408505e-03,4.045415e-01
308,8.569351e-01,-1.097927e-02,-8.408468e-03,4.052735e-01
309,8.526516e-01,-1.096644e-02,-8.408485e-03,4.060118e-01
310,8.484348e-01,-1.095384e-02,-8.408533e-03,4.067537e-01
311,8.445303e-01,-1.094222e-02,-8.408627e-03,4.074968e-01
312,8.410022e-01,-1.093174e-02,-8.408738e-03,4.082395e-01
313,8.378154e-01,-1.092232e-02,-8.408873e-03,4.089806e-01
314,8.349586e-01,-1.091386e-02,-8.408987e-03,4.097193e-01
315,8.325317e-01,-1.090666e-02,-8.409066e-03,4.104548e-01
316,8.307639e-01,-1.090142e-02,-8.409124e-03,4.111867e-01
317,8.299692e-01,-1.089907e-02,-8.409166e-03,4.119145e-01
318,8.304655e-01,-1.090058e-02,-8.409183e-03,4.126378e-01
319,8.324753e-01,-1.090667e-02,-8.409241e-03,4.133566e-01
320,8.360329e-01,-1.091743e-02,-8.409332e-03,4.140713e-01
321,8.409337e-01,-1.093222e-02,-8.409417e-03,4.147828e-01
322,8.467589e-01,-1.094982e-02,-8.409548e-03,4.154919e-01
323,8.529729e-01,-1.096859e-02,-8.409667e-03,4.162000e-01
324,8.590531e-01,-1.098689e-02,-8.409728e-03,4.169086e-01
325,8.645958e-01,-1.100357e-02,-8.409785e-03,4.176192e-01
326,8.693446e-01,-1.101786e-02,-8.409830e-03,4.183335e-01
327,8.731272e-01,-1.102925e-02,-8.409865e-03,4.190535e-01
328,8.757433e-01,-1.103715e-02,-8.409916e-03,4.197811e-01
329,8.768955e-01,-1.104065e-02,-8.409965e-03,4.205184e-01
330,8.762250e-01,-1.103867e-02,-8.409995e-03,4.212668e-01
331,8.734404e-01,-1.103030e-02,-8.409981e-03,4.220270e-01
332,8.684686e-01,-1.101530e-02,-8.409897e-03,4.227983e-01
333,8.615597e-01,-1.099440e-02,-8.409725e-03,4.235783e-01
334,8.533092e-01,-1.096942e-02,-8.409493e-03,4.243637e-01
335,8.445770e-01,-1.094300e-02,-8.409270e-03,4.251499e-01
336,8.363237e-01,-1.091806e-02,-8.409086e-03,4.259320e-01
337,8.294345e-01,-1.089725e-02,-8.408942e-03,4.267055e-01
338,8.246111e-01,-1.088265e-02,-8.408819e-03,4.274667e-01
339,8.223220e-01,-1.087570e-02,-8.408738e-03,4.282135e-01
340,8.227499e-01,-1.087699e-02,-8.408736e-03,4.289453e-01
341,8.257303e-01,-1.088597e-02,-8.408775e-03,4.296633e-01
342,8.307547e-01,-1.090112e-02,-8.408851e-03,4.303701e-01
343,8.370706e-01,-1.092013e-02,-8.408918e-03,4.310697e-01
344,8.438412e-01,-1.094047e-02,-8.408944e-03,4.317667e-01
