TimeStep,Temp,PotEnergy,TotEnergy,MeanSqDisp
0,9.003000e-01,-3.824932e-04,-2.594566e-04,8.215838e-03
1,9.011931e-01,-3.826042e-04,-2.594455e-04,1.643441e-02
2,9.026587e-01,-3.827860e-04,-2.594271e-04,2.465840e-02
3,9.046609e-01,-3.830338e-04,-2.594012e-04,3.289034e-02
4,9.071465e-01,-3.833402e-04,-2.593679e-04,4.113255e-02
5,9.100419e-01,-3.836952e-04,-2.593273e-04,4.938708e-02
6,9.132486e-01,-3.840856e-04,-2.592794e-04,5.765555e-02
7,9.166381e-01,-3.844943e-04,-2.592249e-04,6.593908e-02
8,9.200449e-01,-3.849001e-04,-2.591651e-04,7.423811e-02
9,9.232585e-01,-3.852765e-04,-2.591023e-04,8.255226e-02
10,9.260145e-01,-3.855903e-04,-2.590395e-04,9.088005e-02
11,9.279875e-01,-3.857996e-04,-2.589792e-04,9.921865e-02
12,9.287873e-01,-3.858531e-04,-2.589234e-04,1.075636e-01
13,9.279642e-01,-3.856913e-04,-2.588740e-04,1.159084e-01
14,9.250330e-01,-3.852483e-04,-2.588317e-04,1.242442e-01
15,9.195211e-01,-3.844600e-04,-2.587965e-04,1.325593e-01
16,9.110467e-01,-3.832731e-04,-2.587678e-04,1.408391e-01
17,8.994142e-01,-3.816596e-04,-2.587440e-04,1.490659e-01
18,8.846988e-01,-3.796289e-04,-2.587243e-04,1.572197e-01
19,8.672853e-01,-3.772330e-04,-2.587082e-04,1.652784e-01
20,8.478422e-01,-3.745636e-04,-2.586959e-04,1.732194e-01
21,8.272356e-01,-3.717392e-04,-2.586877e-04,1.810205e-01
22,8.064149e-01,-3.688900e-04,-2.586838e-04,1.886616e-01
23,7.863023e-01,-3.661423e-04,-2.586848e-04,1.961254e-01
24,7.677105e-01,-3.636068e-04,-2.586901e-04,2.033983e-01
25,7.512913e-01,-3.613726e-04,-2.586998e-04,2.104707e-01
26,7.375066e-01,-3.595025e-04,-2.587135e-04,2.173374e-01
27,7.266155e-01,-3.580314e-04,-2.587308e-04,2.239970e-01
28,7.186772e-01,-3.569672e-04,-2.587515e-04,2.304520e-01
29,7.135713e-01,-3.562926e-04,-2.587747e-04,2.367080e-01
30,7.110338e-01,-3.559710e-04,-2.587998e-04,2.427730e-01
31,7.107036e-01,-3.559525e-04,-2.588264e-04,2.486573e-01
32,7.121728e-01,-3.561805e-04,-2.588536e-04,2.543721e-01
33,7.150334e-01,-3.565993e-04,-2.588815e-04,2.599294e-01
34,7.189114e-01,-3.571575e-04,-2.589097e-04,2.653416e-01
35,7.234823e-01,-3.578106e-04,-2.589382e-04,2.706207e-01
36,7.284715e-01,-3.585212e-04,-2.589670e-04,2.757781e-01
37,7.336445e-01,-3.592575e-04,-2.589963e-04,2.808248e-01
38,7.387995e-01,-3.599915e-04,-2.590258e-04,2.857709e-01
39,7.437630e-01,-3.606994e-04,-2.590554e-04,2.906258e-01
40,7.483936e-01,-3.613618e-04,-2.590850e-04,2.953976e-01
41,7.525898e-01,-3.619647e-04,-2.591144e-04,3.000939e-01
42,7.562985e-01,-3.625011e-04,-2.591440e-04,3.047210e-01
43,7.595133e-01,-3.629700e-04,-2.591735e-04,3.092843e-01
44,7.622609e-01,-3.633750e-04,-2.592030e-04,3.137888e-01
45,7.645857e-01,-3.637223e-04,-2.592326e-04,3.182383e-01
46,7.665423e-01,-3.640193e-04,-2.592622e-04,3.226365e-01
47,7.681952e-01,-3.642751e-04,-2.592921e-04,3.269861e-01
48,7.696202e-01,-3.644997e-04,-2.593220e-04,3.312900e-01
49,7.709027e-01,-3.647048e-04,-2.593519e-04,3.355502e-01
50,7.721270e-01,-3.649020e-04,-2.593817e-04,3.397690e-01
51,7.733609e-01,-3.651006e-04,-2.594117e-04,3.439483e-01
52,7.746393e-01,-3.653055e-04,-2.594419e-04,3.480902e-01
53,7.759628e-01,-3.655165e-04,-2.594720e-04,3.521967e-01
54,7.773125e-01,-3.657307e-04,-2.595018e-04,3.562697e-01
55,7.786701e-01,-3.659454e-04,-2.595309e-04,3.603113e-01
56,7.800293e-01,-3.661599e-04,-2.595597e-04,3.643230e-01
57,7.813896e-01,-3.663745e-04,-2.595884e-04,3.683068e-01
58,7.827410e-01,-3.665878e-04,-2.596170e-04,3.722641e-01
59,7.840558e-01,-3.667959e-04,-2.596454e-04,3.761966e-01
60,7.852974e-01,-3.669933e-04,-2.596731e-04,3.801057e-01
61,7.864360e-01,-3.671759e-04,-2.597002e-04,3.839928e-01
62,7.874584e-01,-3.673418e-04,-2.597263e-04,3.878590e-01
63,7.883663e-01,-3.674913e-04,-2.597517e-04,3.917055e-01
64,7.891740e-01,-3.676261e-04,-2.597762e-04,3.955333e-01
65,7.899049e-01,-3.677500e-04,-2.598001e-04,3.993432e-01
66,7.905869e-01,-3.678666e-04,-2.598236e-04,4.031358e-01
67,7.912421e-01,-3.679793e-04,-2.598467e-04,4.069119e-01
68,7.918790e-01,-3.680891e-04,-2.598695e-04,4.106719e-01
69,7.924932e-01,-3.681954e-04,-2.598918e-04,4.144164e-01
70,7.930790e-01,-3.682973e-04,-2.599137e-04,4.181456e-01
71,7.936389e-01,-3.683952e-04,-2.599350e-04,4.218600e-01
72,7.941799e-01,-3.684902e-04,-2.599562e-04,4.255599e-01
73,7.947008e-01,-3.685823e-04,-2.599770e-04,4.292454e-01
74,7.951817e-01,-3.686686e-04,-2.599977e-04,4.329170e-01
75,7.955848e-01,-3.687439e-04,-2.600178e-04,4.365747e-01
76,7.958632e-01,-3.688014e-04,-2.600373e-04,4.402187e-01
77,7.959716e-01,-3.688350e-04,-2.600561e-04,4.438490e-01
78,7.958795e-01,-3.688407e-04,-2.600744e-04,4.474654e-01
79,7.955876e-01,-3.688185e-04,-2.600920e-04,4.510675e-01
80,7.951370e-01,-3.687738e-04,-2.601089e-04,4.546546e-01
81,7.945985e-01,-3.687166e-04,-2.601253e-04,4.582262e-01
82,7.940490e-01,-3.686577e-04,-2.601415e-04,4.617813e-01
83,7.935520e-01,-3.686059e-04,-2.601577e-04,4.653194e-01
84,7.931494e-01,-3.685667e-04,-2.601734e-04,4.688397e-01
85,7.928601e-01,-3.685427e-04,-2.601890e-04,4.723418e-01
86,7.926849e-01,-3.685339e-04,-2.602042e-04,4.758250e-01
87,7.926156e-01,-3.685395e-04,-2.602192e-04,4.792891e-01
88,7.926446e-01,-3.685584e-04,-2.602342e-04,4.827338e-01
89,7.927714e-01,-3.685904e-04,-2.602488e-04,4.861589e-01
90,7.930058e-01,-3.686366e-04,-2.602630e-04,4.895642e-01
91,7.933654e-01,-3.686994e-04,-2.602766e-04,4.929499e-01
92,7.938659e-01,-3.687813e-04,-2.602901e-04,4.963162e-01
93,7.945095e-01,-3.688825e-04,-2.603034e-04,4.996632e-01
94,7.952799e-01,-3.690005e-04,-2.603161e-04,5.029916e-01
95,7.961499e-01,-3.691318e-04,-2.603285e-04,5.063019e-01
96,7.970906e-01,-3.692727e-04,-2.603409e-04,5.095949e-01
97,7.980703e-01,-3.694187e-04,-2.603530e-04,5.128713e-01
98,7.990457e-01,-3.695639e-04,-2.603649e-04,5.161321e-01
99,7.999543e-01,-3.696996e-04,-2.603764e-04,5.193782e-01
100,9.004565e-01,-3.697738e-04,-2.467158e-04,5.228131e-01
101,8.999896e-01,-3.697215e-04,-2.467272e-04,5.262466e-01
102,8.986025e-01,-3.695426e-04,-2.467379e-04,5.296786e-01
103,8.963846e-01,-3.692491e-04,-2.467476e-04,5.331084e-01
104,8.935177e-01,-3.688663e-04,-2.467566e-04,5.365347e-01
105,8.902607e-01,-3.684298e-04,-2.467652e-04,5.399559e-01
106,8.869083e-01,-3.679802e-04,-2.467737e-04,5.433701e-01
107,8.837393e-01,-3.675560e-04,-2.467826e-04,5.467751e-01
108,8.809762e-01,-3.671874e-04,-2.467916e-04,5.501690e-01
109,8.787609e-01,-3.668940e-04,-2.468010e-04,5.535499e-01
110,8.771474e-01,-3.666833e-04,-2.468107e-04,5.569163e-01
111,8.761192e-01,-3.665525e-04,-2.468205e-04,5.602669e-01
112,8.756246e-01,-3.664943e-04,-2.468299e-04,5.636009e-01
113,8.756050e-01,-3.665007e-04,-2.468389e-04,5.669177e-01
114,8.760013e-01,-3.665633e-04,-2.468474e-04,5.702170e-01
115,8.767439e-01,-3.666732e-04,-2.468558e-04,5.734989e-01
116,8.777409e-01,-3.668176e-04,-2.468640e-04,5.767637e-01
117,8.788755e-01,-3.669808e-04,-2.468721e-04,5.800119e-01
118,8.800206e-01,-3.671451e-04,-2.468799e-04,5.832441e-01
119,8.810661e-01,-3.672951e-04,-2.468870e-04,5.864609e-01
120,8.819403e-01,-3.674212e-04,-2.468936e-04,5.896630e-01
121,8.826159e-01,-3.675194e-04,-2.468995e-04,5.928511e-01
122,8.831021e-01,-3.675912e-04,-2.469049e-04,5.960257e-01
123,8.834252e-01,-3.676407e-04,-2.469102e-04,5.991873e-01
124,8.836099e-01,-3.676713e-04,-2.469156e-04,6.023365e-01
125,8.836691e-01,-3.676847e-04,-2.469208e-04,6.054736e-01
126,8.836043e-01,-3.676814e-04,-2.469264e-04,6.085992e-01
127,8.834076e-01,-3.676604e-04,-2.469323e-04,6.117135e-01
128,8.830611e-01,-3.676185e-04,-2.469378e-04,6.148168e-01
129,8.825371e-01,-3.675523e-04,-2.469432e-04,6.179094e-01
130,8.818045e-01,-3.674575e-04,-2.469485e-04,6.209912e-01
131,8.808423e-01,-3.673308e-04,-2.469533e-04,6.240622e-01
132,8.796591e-01,-3.671734e-04,-2.469576e-04,6.271222e-01
133,8.783143e-01,-3.669936e-04,-2.469616e-04,6.301709e-01
134,8.769238e-01,-3.668073e-04,-2.469653e-04,6.332077e-01
135,8.756366e-01,-3.666351e-04,-2.469691e-04,6.362318e-01
136,8.745920e-01,-3.664965e-04,-2.469732e-04,6.392425e-01
137,8.738852e-01,-3.664044e-04,-2.469777e-04,6.422389e-01
138,8.735526e-01,-3.663640e-04,-2.469827e-04,6.452207e-01
139,8.735744e-01,-3.663724e-04,-2.469881e-04,6.481876e-01
140,8.738912e-01,-3.664212e-04,-2.469936e-04,6.511397e-01
141,8.744316e-01,-3.665002e-04,-2.469988e-04,6.540773e-01
142,8.751378e-01,-3.666016e-04,-2.470036e-04,6.570009e-01
143,8.759780e-01,-3.667209e-04,-2.470081e-04,6.599109e-01
144,8.769419e-01,-3.668570e-04,-2.470126e-04,6.628078e-01
145,8.780283e-01,-3.670097e-04,-2.470168e-04,6.656920e-01
146,8.792270e-01,-3.671778e-04,-2.470211e-04,6.685639e-01
147,8.805013e-01,-3.673563e-04,-2.470254e-04,6.714243e-01
148,8.817839e-01,-3.675358e-04,-2.470297e-04,6.742736e-01
149,8.829915e-01,-3.677051e-04,-2.470339e-04,6.771128e-01
150,8.840507e-01,-3.678539e-04,-2.470380e-04,6.799426e-01
151,8.849239e-01,-3.679765e-04,-2.470412e-04,6.827640e-01
152,8.856271e-01,-3.680751e-04,-2.470437e-04,6.855778e-01
153,8.862229e-01,-3.681588e-04,-2.470459e-04,6.883850e-01
154,8.867817e-01,-3.682378e-04,-2.470486e-04,6.911867e-01
155,8.873283e-01,-3.683160e-04,-2.470521e-04,6.939837e-01
156,8.878098e-01,-3.683862e-04,-2.470565e-04,6.967771e-01
157,8.881110e-01,-3.684316e-04,-2.470607e-04,6.995678e-01
158,8.881082e-01,-3.684350e-04,-2.470646e-04,7.023565e-01
159,8.877347e-01,-3.683867e-04,-2.470673e-04,7.051436e-01
160,8.870195e-01,-3.682909e-04,-2.470692e-04,7.079292e-01
161,8.860823e-01,-3.681642e-04,-2.470706e-04,7.107129e-01
162,8.850895e-01,-3.680300e-04,-2.470720e-04,7.134943e-01
163,8.842016e-01,-3.679103e-04,-2.470737e-04,7.162726e-01
164,8.835447e-01,-3.678225e-04,-2.470757e-04,7.190472e-01
165,8.832057e-01,-3.677786e-04,-2.470781e-04,7.218177e-01
166,8.832198e-01,-3.677837e-04,-2.470813e-04,7.245836e-01
167,8.835496e-01,-3.678322e-04,-2.470847e-04,7.273449e-01
168,8.840946e-01,-3.679099e-04,-2.470880e-04,7.301015e-01
169,8.847350e-01,-3.680000e-04,-2.470905e-04,7.328534e-01
170,8.853676e-01,-3.680883e-04,-2.470924e-04,7.356005e-01
171,8.859160e-01,-3.681644e-04,-2.470935e-04,7.383428e-01
172,8.863341e-01,-3.682225e-04,-2.470944e-04,7.410801e-01
173,8.866083e-01,-3.682608e-04,-2.470953e-04,7.438125e-01
174,8.867487e-01,-3.682808e-04,-2.470961e-04,7.465398e-01
175,8.867671e-01,-3.682841e-04,-2.470969e-04,7.492621e-01
176,8.866584e-01,-3.682699e-04,-2.470976e-04,7.519795e-01
177,8.864031e-01,-3.682353e-04,-2.470979e-04,7.546919e-01
178,8.859945e-01,-3.681792e-04,-2.470976e-04,7.573992e-01
179,8.854691e-01,-3.681064e-04,-2.470966e-04,7.601009e-01
180,8.849147e-01,-3.680291e-04,-2.470950e-04,7.627966e-01
181,8.844427e-01,-3.679633e-04,-2.470938e-04,7.654857e-01
182,8.841384e-01,-3.679212e-04,-2.470933e-04,7.681673e-01
183,8.840245e-01,-3.679058e-04,-2.470934e-04,7.708408e-01
184,8.840648e-01,-3.679118e-04,-2.470939e-04,7.735055e-01
185,8.842008e-01,-3.679304e-04,-2.470940e-04,7.761606e-01
186,8.843886e-01,-3.679558e-04,-2.470936e-04,7.788055e-01
187,8.846061e-01,-3.679851e-04,-2.470933e-04,7.814395e-01
188,8.848283e-01,-3.680155e-04,-2.470933e-04,7.840622e-01
189,8.850004e-01,-3.680393e-04,-2.470936e-04,7.866731e-01
190,8.850483e-01,-3.680456e-04,-2.470933e-04,7.892723e-01
191,8.849184e-01,-3.680271e-04,-2.470926e-04,7.918597e-01
192,8.846085e-01,-3.679834e-04,-2.470912e-04,7.944353e-01
193,8.841697e-01,-3.679216e-04,-2.470894e-04,7.969991e-01
194,8.836932e-01,-3.678543e-04,-2.470872e-04,7.995510e-01
195,8.832981e-01,-3.677980e-04,-2.470849e-04,8.020910e-01
196,8.831160e-01,-3.677710e-04,-2.470828e-04,8.046192e-01
197,8.832652e-01,-3.677897e-04,-2.470811e-04,8.071357e-01
198,8.838181e-01,-3.678644e-04,-2.470802e-04,8.096409e-01
199,8.847815e-01,-3.679956e-04,-2.470797e-04,8.121353e-01
200,8.860968e-01,-3.681753e-04,-2.470797e-04,8.146196e-01
201,8.876557e-01,-3.683884e-04,-2.470798e-04,8.170946e-01
202,8.893203e-01,-3.686161e-04,-2.470799e-04,8.195610e-01
203,8.909397e-01,-3.688377e-04,-2.470802e-04,8.220198e-01
204,8.923627e-01,-3.690319e-04,-2.470800e-04,8.244717e-01
205,8.934609e-01,-3.691815e-04,-2.470795e-04,8.269178e-01
206,8.941604e-01,-3.692760e-04,-2.470784e-04,8.293588e-01
207,8.944637e-01,-3.693161e-04,-2.470771e-04,8.317951e-01
208,8.944416e-01,-3.693119e-04,-2.470759e-04,8.342273e-01
209,8.941941e-01,-3.692774e-04,-2.470752e-04,8.366555e-01
210,8.938018e-01,-3.692238e-04,-2.470752e-04,8.390799e-01
211,8.933023e-01,-3.691560e-04,-2.470757e-04,8.415003e-01
212,8.927107e-01,-3.690756e-04,-2.470761e-04,8.439169e-01
213,8.920556e-01,-3.689863e-04,-2.470763e-04,8.463295e-01
214,8.913952e-01,-3.688963e-04,-2.470766e-04,8.487378e-01
215,8.908074e-01,-3.688161e-04,-2.470768e-04,8.511417e-01
216,8.903727e-01,-3.687572e-04,-2.470772e-04,8.535408e-01
217,8.901583e-01,-3.687287e-04,-2.470780e-04,8.559347e-01
218,8.901964e-01,-3.687354e-04,-2.470795e-04,8.583231e-01
219,8.904558e-01,-3.687731e-04,-2.470818e-04,8.607058e-01
220,8.908259e-01,-3.688268e-04,-2.470850e-04,8.630824e-01
221,8.911394e-01,-3.688726e-04,-2.470879e-04,8.654528e-01
222,8.912343e-01,-3.688878e-04,-2.470901e-04,8.678167e-01
223,8.910240e-01,-3.688601e-04,-2.470911e-04,8.701738e-01
224,8.905366e-01,-3.687934e-04,-2.470911e-04,8.725239e-01
225,8.899007e-01,-3.687063e-04,-2.470908e-04,8.748666e-01
226,8.892963e-01,-3.686235e-04,-2.470907e-04,8.772017e-01
227,8.888989e-01,-3.685695e-04,-2.470909e-04,8.795291e-01
228,8.888372e-01,-3.685618e-04,-2.470917e-04,8.818488e-01
229,8.891673e-01,-3.686082e-04,-2.470930e-04,8.841609e-01
230,8.898645e-01,-3.687054e-04,-2.470949e-04,8.864659e-01
231,8.908375e-01,-3.688406e-04,-2.470972e-04,8.887643e-01
232,8.919556e-01,-3.689959e-04,-2.470997e-04,8.910566e-01
233,8.930762e-01,-3.691517e-04,-2.471023e-04,8.933435e-01
234,8.940605e-01,-3.692886e-04,-2.471047e-04,8.956259e-01
235,8.947818e-01,-3.693893e-04,-2.471068e-04,8.979043e-01
236,8.951377e-01,-3.694398e-04,-2.471087e-04,9.001794e-01
237,8.950649e-01,-3.694313e-04,-2.471101e-04,9.024518e-01
238,8.945514e-01,-3.693620e-04,-2.471110e-04,9.047217e-01
239,8.936424e-01,-3.692381e-04,-2.471113e-04,9.069892e-01
240,8.924371e-01,-3.690734e-04,-2.471113e-04,9.092541e-01
241,8.910780e-01,-3.688875e-04,-2.471112e-04,9.115160e-01
242,8.897348e-01,-3.687034e-04,-2.471106e-04,9.137744e-01
243,8.885852e-01,-3.685462e-04,-2.471105e-04,9.160288e-01
244,8.877890e-01,-3.684377e-04,-2.471109e-04,9.182789e-01
245,8.874534e-01,-3.683929e-04,-2.471119e-04,9.205245e-01
246,8.876010e-01,-3.684149e-04,-2.471137e-04,9.227659e-01
247,8.881646e-01,-3.684940e-04,-2.471158e-04,9.250039e-01
248,8.890140e-01,-3.686123e-04,-2.471180e-04,9.272391e-01
249,8.900006e-01,-3.687495e-04,-2.471204e-04,9.294726e-01
250,8.909975e-01,-3.688878e-04,-2.471224e-04,9.317049e-01
251,8.919238e-01,-3.690162e-04,-2.471243e-04,9.339365e-01
252,8.927532e-01,-3.691310e-04,-2.471258e-04,9.361677e-01
253,8.935004e-01,-3.692346e-04,-2.471272e-04,9.383984e-01
254,8.941923e-01,-3.693311e-04,-2.471291e-04,9.406286e-01
255,8.948409e-01,-3.694221e-04,-2.471315e-04,9.428580e-01
256,8.954313e-01,-3.695052e-04,-2.471339e-04,9.450868e-01
257,8.959220e-01,-3.695747e-04,-2.471364e-04,9.473147e-01
258,8.962532e-01,-3.696225e-04,-2.471389e-04,9.495420e-01
259,8.963657e-01,-3.696398e-04,-2.471409e-04,9.517685e-01
260,8.962237e-01,-3.696221e-04,-2.471425e-04,9.539944e-01
261,8.958268e-01,-3.695691e-04,-2.471438e-04,9.562194e-01
262,8.952064e-01,-3.694854e-04,-2.471449e-04,9.584435e-01
263,8.944143e-01,-3.693781e-04,-2.471458e-04,9.606666e-01
264,8.935096e-01,-3.692557e-04,-2.471471e-04,9.628886e-01
265,8.925448e-01,-3.691251e-04,-2.471483e-04,9.651093e-01
266,8.915521e-01,-3.689906e-04,-2.471495e-04,9.673286e-01
267,8.905412e-01,-3.688538e-04,-2.471508e-04,9.695463e-01
268,8.895105e-01,-3.687145e-04,-2.471524e-04,9.717621e-01
269,8.884665e-01,-3.685732e-04,-2.471537e-04,9.739754e-01
270,8.874375e-01,-3.684338e-04,-2.471550e-04,9.761858e-01
271,8.864763e-01,-3.683037e-04,-2.471563e-04,9.783924e-01
272,8.856500e-01,-3.681919e-04,-2.471574e-04,9.805946e-01
273,8.850258e-01,-3.681078e-04,-2.471585e-04,9.827914e-01
274,8.846564e-01,-3.680585e-04,-2.471598e-04,9.849821e-01
275,8.845718e-01,-3.680484e-04,-2.471612e-04,9.871660e-01
276,8.847760e-01,-3.680780e-04,-2.471629e-04,9.893429e-01
277,8.852412e-01,-3.681436e-04,-2.471649e-04,9.915123e-01
278,8.858987e-01,-3.682359e-04,-2.471674e-04,9.936745e-01
279,8.866421e-01,-3.683403e-04,-2.471702e-04,9.958295e-01
280,8.873570e-01,-3.684404e-04,-2.471726e-04,9.979779e-01
281,8.879653e-01,-3.685254e-04,-2.471745e-04,1.000120e+00
282,8.884594e-01,-3.685943e-04,-2.471759e-04,1.002256e+00
283,8.889097e-01,-3.686569e-04,-2.471769e-04,1.004387e+00
284,8.894361e-01,-3.687298e-04,-2.471778e-04,1.006514e+00
285,8.901528e-01,-3.688291e-04,-2.471792e-04,1.008636e+00
286,8.911098e-01,-3.689621e-04,-2.471814e-04,1.010756e+00
287,8.922685e-01,-3.691232e-04,-2.471842e-04,1.012873e+00
288,8.935308e-01,-3.692986e-04,-2.471871e-04,1.014990e+00
289,8.947854e-01,-3.694726e-04,-2.471896e-04,1.017107e+00
290,8.959220e-01,-3.696305e-04,-2.471921e-04,1.019226e+00
291,8.968232e-01,-3.697564e-04,-2.471949e-04,1.021347e+00
292,8.973774e-01,-3.698347e-04,-2.471974e-04,1.023471e+00
293,8.975151e-01,-3.698557e-04,-2.471997e-04,1.025599e+00
294,8.972336e-01,-3.698190e-04,-2.472014e-04,1.027730e+00
295,8.965931e-01,-3.697330e-04,-2.472030e-04,1.029865e+00
296,8.956921e-01,-3.696114e-04,-2.472045e-04,1.032003e+00
297,8.946453e-01,-3.694697e-04,-2.472059e-04,1.034143e+00
298,8.935782e-01,-3.693250e-04,-2.472070e-04,1.036284e+00
299,8.926236e-01,-3.691958e-04,-2.472083e-04,1.038426e+00
300,8.919039e-01,-3.690991e-04,-2.472099e-04,1.040566e+00
301,8.914993e-01,-3.690459e-04,-2.472120e-04,1.042705e+00
302,8.914235e-01,-3.690382e-04,-2.472147e-04,1.044842e+00
303,8.916193e-01,-3.690683e-04,-2.472180e-04,1.046977e+00
304,8.919715e-01,-3.691201e-04,-2.472217e-04,1.049109e+00
305,8.923354e-01,-3.691734e-04,-2.472252e-04,1.051238e+00
306,8.925843e-01,-3.692103e-04,-2.472281e-04,1.053365e+00
307,8.926633e-01,-3.692229e-04,-2.472299e-04,1.055489e+00
308,8.926176e-01,-3.692173e-04,-2.472306e-04,1.057610e+00
309,8.925752e-01,-3.692116e-04,-2.472307e-04,1.059729e+00
310,8.926840e-01,-3.692271e-04,-2.472312e-04,1.061845e+00
311,8.930256e-01,-3.692753e-04,-2.472328e-04,1.063959e+00
312,8.935586e-01,-3.693502e-04,-2.472348e-04,1.066071e+00
313,8.941452e-01,-3.694322e-04,-2.472367e-04,1.068180e+00
314,8.946372e-01,-3.695007e-04,-2.472379e-04,1.070288e+00
315,8.949450e-01,-3.695433e-04,-2.472384e-04,1.072394e+00
316,8.950591e-01,-3.695585e-04,-2.472381e-04,1.074498e+00
317,8.950309e-01,-3.695539e-04,-2.472374e-04,1.076600e+00
318,8.949367e-01,-3.695404e-04,-2.472367e-04,1.078700e+00
319,8.948466e-01,-3.695274e-04,-2.472361e-04,1.080796e+00
320,8.948141e-01,-3.695225e-04,-2.472356e-04,1.082888e+00
321,8.948763e-01,-3.695305e-04,-2.472351e-04,1.084975e+00
322,8.950552e-01,-3.695547e-04,-2.472348e-04,1.087057e+00
323,8.953618e-01,-3.695964e-04,-2.472347e-04,1.089134e+00
324,8.958062e-01,-3.696569e-04,-2.472344e-04,1.091204e+00
325,8.963962e-01,-3.697374e-04,-2.472342e-04,1.093269e+00
326,8.971178e-01,-3.698362e-04,-2.472345e-04,1.095327e+00
327,8.979115e-01,-3.699454e-04,-2.472352e-04,1.097379e+00
328,8.986747e-01,-3.700504e-04,-2.472359e-04,1.099425e+00
329,8.992881e-01,-3.701347e-04,-2.472364e-04,1.101464e+00
330,8.996470e-01,-3.701836e-04,-2.472362e-04,1.103498e+00
331,8.996826e-01,-3.701880e-04,-2.472357e-04,1.105526e+00
332,8.993791e-01,-3.701456e-04,-2.472348e-04,1.107549e+00
333,8.987768e-01,-3.700621e-04,-2.472337e-04,1.109566e+00
334,8.979540e-01,-3.699486e-04,-2.472326e-04,1.111578e+00
335,8.970007e-01,-3.698170e-04,-2.472312e-04,1.113585e+00
336,8.960045e-01,-3.696791e-04,-2.472295e-04,1.115586e+00
337,8.950448e-01,-3.695465e-04,-2.472281e-04,1.117582e+00
338,8.941738e-01,-3.694265e-04,-2.472271e-04,1.119574e+00
339,8.933949e-01,-3.693199e-04,-2.472270e-04,1.121559e+00
340,8.926671e-01,-3.692204e-04,-2.472269e-04,1.123540e+00
341,8.919448e-01,-3.691211e-04,-2.472263e-04,1.125516e+00
342,8.912188e-01,-3.690208e-04,-2.472252e-04,1.127487e+00
343,8.905230e-01,-3.689245e-04,-2.472240e-04,1.129452e+00
344,8.899089e-01,-3.688395e-04,-2.472229e-04,1.131412e+00
