TimeStep,Temp,PotEnergy,TotEnergy,MeanSqDisp
0,8.499690e-01,-4.898511e-04,-3.736928e-04,7.984360e-03
1,8.498601e-01,-4.898285e-04,-3.736851e-04,1.596843e-02
2,8.496249e-01,-4.898029e-04,-3.736916e-04,2.395176e-02
3,8.491792e-01,-4.897671e-04,-3.737167e-04,3.193362e-02
4,8.483985e-01,-4.896958e-04,-3.737521e-04,3.991276e-02
5,8.471137e-01,-4.895591e-04,-3.737910e-04,4.788727e-02
6,8.451068e-01,-4.893235e-04,-3.738297e-04,5.585430e-02
7,8.421066e-01,-4.889497e-04,-3.738659e-04,6.380984e-02
8,8.377864e-01,-4.883917e-04,-3.738983e-04,7.174843e-02
9,8.317657e-01,-4.875964e-04,-3.739258e-04,7.966282e-02
10,8.236223e-01,-4.865052e-04,-3.739475e-04,8.754366e-02
11,8.129207e-01,-4.850578e-04,-3.739626e-04,9.537910e-02
12,7.992653e-01,-4.831994e-04,-3.739704e-04,1.031546e-01
13,7.823780e-01,-4.808913e-04,-3.739701e-04,1.108526e-01
14,7.621877e-01,-4.781236e-04,-3.739616e-04,1.184530e-01
15,7.389045e-01,-4.749250e-04,-3.739450e-04,1.259333e-01
16,7.130540e-01,-4.713686e-04,-3.739213e-04,1.332697e-01
17,6.854620e-01,-4.675685e-04,-3.738921e-04,1.404381e-01
18,6.571842e-01,-4.636716e-04,-3.738596e-04,1.474157e-01
19,6.293880e-01,-4.598393e-04,-3.738260e-04,1.541821e-01
20,6.032089e-01,-4.562290e-04,-3.737934e-04,1.607209e-01
21,5.796230e-01,-4.529755e-04,-3.737631e-04,1.670201e-01
22,5.593610e-01,-4.501797e-04,-3.737364e-04,1.730730e-01
23,5.428686e-01,-4.479027e-04,-3.737133e-04,1.788777e-01
24,5.303057e-01,-4.461666e-04,-3.736941e-04,1.844374e-01
25,5.215734e-01,-4.449578e-04,-3.736787e-04,1.897594e-01
26,5.163623e-01,-4.442334e-04,-3.736664e-04,1.948544e-01
27,5.142120e-01,-4.439299e-04,-3.736567e-04,1.997358e-01
28,5.145740e-01,-4.439722e-04,-3.736496e-04,2.044186e-01
29,5.168688e-01,-4.442805e-04,-3.736443e-04,2.089188e-01
30,5.205331e-01,-4.447775e-04,-3.736405e-04,2.132526e-01
31,5.250550e-01,-4.453927e-04,-3.736378e-04,2.174359e-01
32,5.299974e-01,-4.460664e-04,-3.736360e-04,2.214836e-01
33,5.350116e-01,-4.467505e-04,-3.736348e-04,2.254096e-01
34,5.398389e-01,-4.474097e-04,-3.736344e-04,2.292265e-01
35,5.443005e-01,-4.480200e-04,-3.736349e-04,2.329454e-01
36,5.482815e-01,-4.485656e-04,-3.736364e-04,2.365761e-01
37,5.517177e-01,-4.490374e-04,-3.736387e-04,2.401271e-01
38,5.545901e-01,-4.494328e-04,-3.736415e-04,2.436055e-01
39,5.569188e-01,-4.497544e-04,-3.736449e-04,2.470174e-01
40,5.587520e-01,-4.500095e-04,-3.736494e-04,2.503681e-01
41,5.601496e-01,-4.502058e-04,-3.736547e-04,2.536617e-01
42,5.611676e-01,-4.503510e-04,-3.736608e-04,2.569019e-01
43,5.618497e-01,-4.504511e-04,-3.736677e-04,2.600919e-01
44,5.622264e-01,-4.505098e-04,-3.736750e-04,2.632341e-01
45,5.623220e-01,-4.505306e-04,-3.736827e-04,2.663308e-01
46,5.621616e-01,-4.505167e-04,-3.736907e-04,2.693838e-01
47,5.617756e-01,-4.504724e-04,-3.736992e-04,2.723946e-01
48,5.612004e-01,-4.504024e-04,-3.737077e-04,2.753645e-01
49,5.604765e-01,-4.503123e-04,-3.737166e-04,2.782946e-01
50,5.596470e-01,-4.502080e-04,-3.737257e-04,2.811856e-01
51,5.587557e-01,-4.500955e-04,-3.737349e-04,2.840384e-01
52,5.578448e-01,-4.499804e-04,-3.737443e-04,2.868535e-01
53,5.569533e-01,-4.498681e-04,-3.737539e-04,2.896317e-01
54,5.561146e-01,-4.497634e-04,-3.737638e-04,2.923734e-01
55,5.553558e-01,-4.496697e-04,-3.737738e-04,2.950792e-01
56,5.546965e-01,-4.495897e-04,-3.737839e-04,2.977497e-01
57,5.541511e-01,-4.495254e-04,-3.737941e-04,3.003855e-01
58,5.537322e-01,-4.494786e-04,-3.738046e-04,3.029872e-01
59,5.534554e-01,-4.494511e-04,-3.738149e-04,3.055556e-01
60,5.533419e-01,-4.494458e-04,-3.738251e-04,3.080913e-01
61,5.534181e-01,-4.494664e-04,-3.738353e-04,3.105952e-01
62,5.537110e-01,-4.495166e-04,-3.738455e-04,3.130681e-01
63,5.542388e-01,-4.495991e-04,-3.738558e-04,3.155111e-01
64,5.549997e-01,-4.497137e-04,-3.738665e-04,3.179254e-01
65,5.559626e-01,-4.498561e-04,-3.738772e-04,3.203123e-01
66,5.570652e-01,-4.500178e-04,-3.738882e-04,3.226734e-01
67,5.582211e-01,-4.501871e-04,-3.738996e-04,3.250100e-01
68,5.593310e-01,-4.503497e-04,-3.739106e-04,3.273239e-01
69,5.602961e-01,-4.504922e-04,-3.739212e-04,3.296165e-01
70,5.610328e-01,-4.506030e-04,-3.739312e-04,3.318890e-01
71,5.614866e-01,-4.506746e-04,-3.739408e-04,3.341425e-01
72,5.616425e-01,-4.507047e-04,-3.739496e-04,3.363777e-01
73,5.615269e-01,-4.506973e-04,-3.739580e-04,3.385952e-01
74,5.611983e-01,-4.506605e-04,-3.739662e-04,3.407951e-01
75,5.607313e-01,-4.506048e-04,-3.739743e-04,3.429774e-01
76,5.601997e-01,-4.505404e-04,-3.739825e-04,3.451421e-01
77,5.596651e-01,-4.504756e-04,-3.739908e-04,3.472890e-01
78,5.591743e-01,-4.504170e-04,-3.739992e-04,3.494180e-01
79,5.587657e-01,-4.503697e-04,-3.740078e-04,3.515290e-01
80,5.584751e-01,-4.503385e-04,-3.740163e-04,3.536221e-01
81,5.583358e-01,-4.503278e-04,-3.740246e-04,3.556972e-01
82,5.583688e-01,-4.503409e-04,-3.740332e-04,3.577548e-01
83,5.585712e-01,-4.503772e-04,-3.740419e-04,3.597952e-01
84,5.589109e-01,-4.504324e-04,-3.740506e-04,3.618191e-01
85,5.593350e-01,-4.504990e-04,-3.740593e-04,3.638272e-01
86,5.597869e-01,-4.505690e-04,-3.740675e-04,3.658205e-01
87,5.602236e-01,-4.506364e-04,-3.740752e-04,3.677997e-01
88,5.606250e-01,-4.506987e-04,-3.740827e-04,3.697657e-01
89,5.609934e-01,-4.507562e-04,-3.740898e-04,3.717191e-01
90,5.613460e-01,-4.508115e-04,-3.740969e-04,3.736606e-01
91,5.617065e-01,-4.508675e-04,-3.741037e-04,3.755907e-01
92,5.620987e-01,-4.509276e-04,-3.741102e-04,3.775098e-01
93,5.625416e-01,-4.509946e-04,-3.741166e-04,3.794185e-01
94,5.630471e-01,-4.510700e-04,-3.741230e-04,3.813172e-01
95,5.636179e-01,-4.511545e-04,-3.741294e-04,3.832063e-01
96,5.642477e-01,-4.512468e-04,-3.741357e-04,3.850865e-01
97,5.649209e-01,-4.513451e-04,-3.741420e-04,3.869582e-01
98,5.656148e-01,-4.514460e-04,-3.741480e-04,3.888220e-01
99,5.663038e-01,-4.515460e-04,-3.741539e-04,3.906786e-01
100,8.497411e-01,-4.515171e-04,-3.353900e-04,3.929708e-01
101,8.473565e-01,-4.511960e-04,-3.353948e-04,3.953056e-01
102,8.430237e-01,-4.506076e-04,-3.353984e-04,3.976809e-01
103,8.370313e-01,-4.497915e-04,-3.354013e-04,4.000934e-01
104,8.297575e-01,-4.487999e-04,-3.354037e-04,4.025388e-01
105,8.216378e-01,-4.476922e-04,-3.354057e-04,4.050121e-01
106,8.131175e-01,-4.465302e-04,-3.354081e-04,4.075079e-01
107,8.045966e-01,-4.453688e-04,-3.354112e-04,4.100207e-01
108,7.963960e-01,-4.442518e-04,-3.354148e-04,4.125450e-01
109,7.887616e-01,-4.432123e-04,-3.354188e-04,4.150758e-01
110,7.818755e-01,-4.422754e-04,-3.354229e-04,4.176085e-01
111,7.758547e-01,-4.414572e-04,-3.354275e-04,4.201391e-01
112,7.707447e-01,-4.407640e-04,-3.354326e-04,4.226643e-01
113,7.665288e-01,-4.401932e-04,-3.354380e-04,4.251814e-01
114,7.631512e-01,-4.397369e-04,-3.354432e-04,4.276885e-01
115,7.605356e-01,-4.393847e-04,-3.354486e-04,4.301840e-01
116,7.585890e-01,-4.391240e-04,-3.354539e-04,4.326671e-01
117,7.571968e-01,-4.389392e-04,-3.354593e-04,4.351370e-01
118,7.562211e-01,-4.388115e-04,-3.354649e-04,4.375933e-01
119,7.555143e-01,-4.387202e-04,-3.354702e-04,4.400359e-01
120,7.549429e-01,-4.386468e-04,-3.354749e-04,4.424645e-01
121,7.544120e-01,-4.385780e-04,-3.354787e-04,4.448787e-01
122,7.538788e-01,-4.385085e-04,-3.354821e-04,4.472781e-01
123,7.533521e-01,-4.384397e-04,-3.354853e-04,4.496622e-01
124,7.528766e-01,-4.383777e-04,-3.354882e-04,4.520303e-01
125,7.525063e-01,-4.383306e-04,-3.354917e-04,4.543818e-01
126,7.522765e-01,-4.383031e-04,-3.354957e-04,4.567163e-01
127,7.521907e-01,-4.382956e-04,-3.354999e-04,4.590334e-01
128,7.522271e-01,-4.383048e-04,-3.355041e-04,4.613330e-01
129,7.523605e-01,-4.383269e-04,-3.355079e-04,4.636153e-01
130,7.525816e-01,-4.383606e-04,-3.355115e-04,4.658805e-01
131,7.529055e-01,-4.384083e-04,-3.355149e-04,4.681291e-01
132,7.533615e-01,-4.384741e-04,-3.355183e-04,4.703617e-01
133,7.539663e-01,-4.385602e-04,-3.355218e-04,4.725792e-01
134,7.546924e-01,-4.386635e-04,-3.355258e-04,4.747824e-01
135,7.554553e-01,-4.387723e-04,-3.355304e-04,4.769724e-01
136,7.561362e-01,-4.388697e-04,-3.355348e-04,4.791504e-01
137,7.566273e-01,-4.389407e-04,-3.355386e-04,4.813174e-01
138,7.568757e-01,-4.389776e-04,-3.355416e-04,4.834747e-01
139,7.568999e-01,-4.389833e-04,-3.355440e-04,4.856230e-01
140,7.567753e-01,-4.389685e-04,-3.355462e-04,4.877630e-01
141,7.565928e-01,-4.389457e-04,-3.355483e-04,4.898954e-01
142,7.564131e-01,-4.389234e-04,-3.355507e-04,4.920206e-01
143,7.562445e-01,-4.389029e-04,-3.355532e-04,4.941391e-01
144,7.560559e-01,-4.388795e-04,-3.355556e-04,4.962512e-01
145,7.558135e-01,-4.388483e-04,-3.355574e-04,4.983574e-01
146,7.555102e-01,-4.388084e-04,-3.355590e-04,5.004580e-01
147,7.551739e-01,-4.387637e-04,-3.355603e-04,5.025534e-01
148,7.548583e-01,-4.387216e-04,-3.355613e-04,5.046437e-01
149,7.546265e-01,-4.386911e-04,-3.355625e-04,5.067292e-01
150,7.545362e-01,-4.386801e-04,-3.355638e-04,5.088099e-01
151,7.546288e-01,-4.386943e-04,-3.355653e-04,5.108861e-01
152,7.549234e-01,-4.387366e-04,-3.355674e-04,5.129580e-01
153,7.554137e-01,-4.388061e-04,-3.355699e-04,5.150257e-01
154,7.560639e-01,-4.388976e-04,-3.355725e-04,5.170896e-01
155,7.568057e-01,-4.390018e-04,-3.355753e-04,5.191500e-01
156,7.575422e-01,-4.391054e-04,-3.355783e-04,5.212070e-01
157,7.581712e-01,-4.391941e-04,-3.355810e-04,5.232611e-01
158,7.586238e-01,-4.392581e-04,-3.355832e-04,5.253123e-01
159,7.588905e-01,-4.392963e-04,-3.355849e-04,5.273608e-01
160,7.590175e-01,-4.393150e-04,-3.355863e-04,5.294066e-01
161,7.590781e-01,-4.393247e-04,-3.355878e-04,5.314496e-01
162,7.591383e-01,-4.393346e-04,-3.355894e-04,5.334899e-01
163,7.592292e-01,-4.393491e-04,-3.355915e-04,5.355275e-01
164,7.593335e-01,-4.393656e-04,-3.355937e-04,5.375627e-01
165,7.593903e-01,-4.393755e-04,-3.355959e-04,5.395958e-01
166,7.593165e-01,-4.393677e-04,-3.355981e-04,5.416272e-01
167,7.590307e-01,-4.393306e-04,-3.356000e-04,5.436571e-01
168,7.584719e-01,-4.392558e-04,-3.356017e-04,5.456856e-01
169,7.576120e-01,-4.391397e-04,-3.356030e-04,5.477126e-01
170,7.564657e-01,-4.389837e-04,-3.356038e-04,5.497378e-01
171,7.550960e-01,-4.387967e-04,-3.356039e-04,5.517607e-01
172,7.536085e-01,-4.385936e-04,-3.356041e-04,5.537806e-01
173,7.521337e-01,-4.383925e-04,-3.356045e-04,5.557964e-01
174,7.508014e-01,-4.382110e-04,-3.356051e-04,5.578073e-01
175,7.497222e-01,-4.380643e-04,-3.356059e-04,5.598123e-01
176,7.489837e-01,-4.379645e-04,-3.356070e-04,5.618105e-01
177,7.486529e-01,-4.379205e-04,-3.356082e-04,5.638012e-01
178,7.487672e-01,-4.379376e-04,-3.356097e-04,5.657840e-01
179,7.493097e-01,-4.380140e-04,-3.356120e-04,5.677587e-01
180,7.501913e-01,-4.381374e-04,-3.356149e-04,5.697255e-01
181,7.512612e-01,-4.382867e-04,-3.356180e-04,5.716846e-01
182,7.523515e-01,-4.384383e-04,-3.356206e-04,5.736364e-01
183,7.533279e-01,-4.385737e-04,-3.356225e-04,5.755812e-01
184,7.541227e-01,-4.386833e-04,-3.356235e-04,5.775193e-01
185,7.547357e-01,-4.387676e-04,-3.356240e-04,5.794508e-01
186,7.552116e-01,-4.388327e-04,-3.356241e-04,5.813758e-01
187,7.556076e-01,-4.388869e-04,-3.356243e-04,5.832944e-01
188,7.559662e-01,-4.389361e-04,-3.356244e-04,5.852068e-01
189,7.563019e-01,-4.389825e-04,-3.356249e-04,5.871135e-01
190,7.566040e-01,-4.390242e-04,-3.356253e-04,5.890147e-01
191,7.568536e-01,-4.390587e-04,-3.356257e-04,5.909109e-01
192,7.570437e-01,-4.390847e-04,-3.356258e-04,5.928025e-01
193,7.571901e-01,-4.391045e-04,-3.356256e-04,5.946899e-01
194,7.573176e-01,-4.391217e-04,-3.356253e-04,5.965734e-01
195,7.574336e-01,-4.391376e-04,-3.356254e-04,5.984533e-01
196,7.575109e-01,-4.391486e-04,-3.356258e-04,6.003300e-01
197,7.575003e-01,-4.391477e-04,-3.356263e-04,6.022036e-01
198,7.573597e-01,-4.391286e-04,-3.356265e-04,6.040745e-01
199,7.570759e-01,-4.390897e-04,-3.356263e-04,6.059430e-01
200,8.491556e-01,-4.389737e-04,-3.229265e-04,6.079257e-01
201,8.474234e-01,-4.387355e-04,-3.229251e-04,6.099167e-01
202,8.449297e-01,-4.383926e-04,-3.229230e-04,6.119155e-01
203,8.418498e-01,-4.379693e-04,-3.229206e-04,6.139210e-01
204,8.384055e-01,-4.374962e-04,-3.229182e-04,6.159322e-01
205,8.348539e-01,-4.370086e-04,-3.229159e-04,6.179476e-01
206,8.314483e-01,-4.365414e-04,-3.229141e-04,6.199659e-01
207,8.283831e-01,-4.361214e-04,-3.229130e-04,6.219858e-01
208,8.257571e-01,-4.357621e-04,-3.229126e-04,6.240061e-01
209,8.235814e-01,-4.354645e-04,-3.229124e-04,6.260259e-01
210,8.218240e-01,-4.352239e-04,-3.229120e-04,6.280446e-01
211,8.204544e-01,-4.350361e-04,-3.229113e-04,6.300617e-01
212,8.194582e-01,-4.348993e-04,-3.229106e-04,6.320766e-01
213,8.188244e-01,-4.348121e-04,-3.229100e-04,6.340890e-01
214,8.185305e-01,-4.347713e-04,-3.229095e-04,6.360984e-01
215,8.185399e-01,-4.347718e-04,-3.229087e-04,6.381046e-01
216,8.188075e-01,-4.348076e-04,-3.229079e-04,6.401072e-01
217,8.192804e-01,-4.348712e-04,-3.229069e-04,6.421060e-01
218,8.198952e-01,-4.349541e-04,-3.229058e-04,6.441009e-01
219,8.205811e-01,-4.350466e-04,-3.229045e-04,6.460918e-01
220,8.212746e-01,-4.351402e-04,-3.229033e-04,6.480788e-01
221,8.219326e-01,-4.352289e-04,-3.229021e-04,6.500621e-01
222,8.225296e-01,-4.353094e-04,-3.229010e-04,6.520419e-01
223,8.230427e-01,-4.353789e-04,-3.229004e-04,6.540186e-01
224,8.234385e-01,-4.354329e-04,-3.229003e-04,6.559925e-01
225,8.236750e-01,-4.354650e-04,-3.229001e-04,6.579640e-01
226,8.237134e-01,-4.354701e-04,-3.228999e-04,6.599336e-01
227,8.235269e-01,-4.354442e-04,-3.228995e-04,6.619013e-01
228,8.231078e-01,-4.353864e-04,-3.228990e-04,6.638674e-01
229,8.224773e-01,-4.352991e-04,-3.228979e-04,6.658319e-01
230,8.216972e-01,-4.351911e-04,-3.228965e-04,6.677945e-01
231,8.208717e-01,-4.350763e-04,-3.228945e-04,6.697550e-01
232,8.201302e-01,-4.349730e-04,-3.228925e-04,6.717129e-01
233,8.195946e-01,-4.348981e-04,-3.228908e-04,6.736679e-01
234,8.193339e-01,-4.348614e-04,-3.228897e-04,6.756196e-01
235,8.193323e-01,-4.348607e-04,-3.228892e-04,6.775680e-01
236,8.194950e-01,-4.348826e-04,-3.228889e-04,6.795132e-01
237,8.196928e-01,-4.349092e-04,-3.228885e-04,6.814555e-01
238,8.198125e-01,-4.349249e-04,-3.228879e-04,6.833951e-01
239,8.197823e-01,-4.349198e-04,-3.228869e-04,6.853324e-01
240,8.195713e-01,-4.348898e-04,-3.228858e-04,6.872674e-01
241,8.191819e-01,-4.348356e-04,-3.228848e-04,6.891999e-01
242,8.186432e-01,-4.347608e-04,-3.228835e-04,6.911297e-01
243,8.180068e-01,-4.346723e-04,-3.228820e-04,6.930564e-01
244,8.173453e-01,-4.345801e-04,-3.228802e-04,6.949794e-01
245,8.167439e-01,-4.344960e-04,-3.228783e-04,6.968982e-01
246,8.162806e-01,-4.344310e-04,-3.228766e-04,6.988121e-01
247,8.160009e-01,-4.343913e-04,-3.228751e-04,7.007203e-01
248,8.159091e-01,-4.343770e-04,-3.228734e-04,7.026223e-01
249,8.159851e-01,-4.343856e-04,-3.228716e-04,7.045174e-01
250,8.162067e-01,-4.344141e-04,-3.228698e-04,7.064052e-01
251,8.165637e-01,-4.344607e-04,-3.228677e-04,7.082852e-01
252,8.170625e-01,-4.345265e-04,-3.228653e-04,7.101573e-01
253,8.177220e-01,-4.346145e-04,-3.228632e-04,7.120214e-01
254,8.185603e-01,-4.347272e-04,-3.228612e-04,7.138776e-01
255,8.195738e-01,-4.348639e-04,-3.228595e-04,7.157264e-01
256,8.207187e-01,-4.350194e-04,-3.228585e-04,7.175686e-01
257,8.219035e-01,-4.351811e-04,-3.228583e-04,7.194049e-01
258,8.229978e-01,-4.353308e-04,-3.228585e-04,7.212365e-01
259,8.238577e-01,-4.354486e-04,-3.228587e-04,7.230645e-01
260,8.243634e-01,-4.355174e-04,-3.228584e-04,7.248899e-01
261,8.244518e-01,-4.355286e-04,-3.228575e-04,7.267136e-01
262,8.241337e-01,-4.354836e-04,-3.228560e-04,7.285360e-01
263,8.234919e-01,-4.353940e-04,-3.228541e-04,7.303573e-01
264,8.226615e-01,-4.352783e-04,-3.228519e-04,7.321775e-01
265,8.217941e-01,-4.351577e-04,-3.228498e-04,7.339961e-01
266,8.210196e-01,-4.350504e-04,-3.228484e-04,7.358126e-01
267,8.204243e-01,-4.349680e-04,-3.228474e-04,7.376264e-01
268,8.200533e-01,-4.349167e-04,-3.228468e-04,7.394369e-01
269,8.199222e-01,-4.348987e-04,-3.228466e-04,7.412435e-01
270,8.200275e-01,-4.349128e-04,-3.228463e-04,7.430457e-01
271,8.203511e-01,-4.349569e-04,-3.228462e-04,7.448432e-01
272,8.208639e-01,-4.350271e-04,-3.228464e-04,7.466359e-01
273,8.215268e-01,-4.351178e-04,-3.228465e-04,7.484238e-01
274,8.222903e-01,-4.352222e-04,-3.228465e-04,7.502074e-01
275,8.230999e-01,-4.353324e-04,-3.228461e-04,7.519872e-01
276,8.239075e-01,-4.354422e-04,-3.228455e-04,7.537638e-01
277,8.246776e-01,-4.355467e-04,-3.228447e-04,7.555379e-01
278,8.253815e-01,-4.356421e-04,-3.228440e-04,7.573099e-01
279,8.259825e-01,-4.357238e-04,-3.228435e-04,7.590804e-01
280,8.264248e-01,-4.357839e-04,-3.228432e-04,7.608497e-01
281,8.266369e-01,-4.358127e-04,-3.228430e-04,7.626180e-01
282,8.265535e-01,-4.358008e-04,-3.228425e-04,7.643855e-01
283,8.261397e-01,-4.357438e-04,-3.228421e-04,7.661519e-01
284,8.254004e-01,-4.356421e-04,-3.228414e-04,7.679170e-01
285,8.243729e-01,-4.355007e-04,-3.228404e-04,7.696803e-01
286,8.231144e-01,-4.353278e-04,-3.228395e-04,7.714411e-01
287,8.216912e-01,-4.351325e-04,-3.228387e-04,7.731986e-01
288,8.201650e-01,-4.349235e-04,-3.228383e-04,7.749518e-01
289,8.185809e-01,-4.347069e-04,-3.228382e-04,7.766998e-01
290,8.169699e-01,-4.344864e-04,-3.228378e-04,7.784415e-01
291,8.153704e-01,-4.342670e-04,-3.228370e-04,7.801762e-01
292,8.138469e-01,-4.340574e-04,-3.228356e-04,7.819030e-01
293,8.124871e-01,-4.338699e-04,-3.228340e-04,7.836212e-01
294,8.113826e-01,-4.337177e-04,-3.228327e-04,7.853303e-01
295,8.106120e-01,-4.336114e-04,-3.228317e-04,7.870300e-01
296,8.102345e-01,-4.335588e-04,-3.228307e-04,7.887202e-01
297,8.102836e-01,-4.335650e-04,-3.228302e-04,7.904009e-01
298,8.107597e-01,-4.336303e-04,-3.228304e-04,7.920725e-01
299,8.116243e-01,-4.337489e-04,-3.228309e-04,7.937355e-01
300,8.127978e-01,-4.339103e-04,-3.228319e-04,7.953908e-01
301,8.141619e-01,-4.340981e-04,-3.228333e-04,7.970394e-01
302,8.155698e-01,-4.342921e-04,-3.228348e-04,7.986821e-01
303,8.168622e-01,-4.344701e-04,-3.228363e-04,8.003199e-01
304,8.178947e-01,-4.346125e-04,-3.228375e-04,8.019535e-01
305,8.185664e-01,-4.347051e-04,-3.228383e-04,8.035834e-01
306,8.188396e-01,-4.347426e-04,-3.228385e-04,8.052100e-01
307,8.187451e-01,-4.347295e-04,-3.228383e-04,8.068333e-01
308,8.183741e-01,-4.346781e-04,-3.228377e-04,8.084533e-01
309,8.178622e-01,-4.346072e-04,-3.228367e-04,8.100698e-01
310,8.173619e-01,-4.345381e-04,-3.228359e-04,8.116827e-01
311,8.170054e-01,-4.344891e-04,-3.228356e-04,8.132917e-01
312,8.168671e-01,-4.344705e-04,-3.228360e-04,8.148970e-01
313,8.169453e-01,-4.344821e-04,-3.228369e-04,8.164983e-01
314,8.171705e-01,-4.345140e-04,-3.228380e-04,8.180957e-01
315,8.174383e-01,-4.345515e-04,-3.228390e-04,8.196890e-01
316,8.176449e-01,-4.345804e-04,-3.228395e-04,8.212782e-01
317,8.177135e-01,-4.345902e-04,-3.228400e-04,8.228632e-01
318,8.176115e-01,-4.345763e-04,-3.228400e-04,8.244437e-01
319,8.173682e-01,-4.345423e-04,-3.228393e-04,8.260198e-01
320,8.170796e-01,-4.345018e-04,-3.228383e-04,8.275914e-01
321,8.168773e-01,-4.344736e-04,-3.228376e-04,8.291586e-01
322,8.168626e-01,-4.344715e-04,-3.228376e-04,8.307215e-01
323,8.170482e-01,-4.344978e-04,-3.228385e-04,8.322805e-01
324,8.173590e-01,-4.345415e-04,-3.228398e-04,8.338359e-01
325,8.176879e-01,-4.345873e-04,-3.228406e-04,8.353880e-01
326,8.179526e-01,-4.346240e-04,-3.228411e-04,8.369369e-01
327,8.181133e-01,-4.346461e-04,-3.228412e-04,8.384827e-01
328,8.181597e-01,-4.346523e-04,-3.228411e-04,8.400253e-01
329,8.180959e-01,-4.346433e-04,-3.228409e-04,8.415646e-01
330,8.179364e-01,-4.346212e-04,-3.228405e-04,8.431003e-01
331,8.177082e-01,-4.345895e-04,-3.228400e-04,8.446323e-01
332,8.174506e-01,-4.345535e-04,-3.228392e-04,8.461607e-01
333,8.172146e-01,-4.345201e-04,-3.228380e-04,8.476855e-01
334,8.170568e-01,-4.344971e-04,-3.228366e-04,8.492069e-01
335,8.170223e-01,-4.344911e-04,-3.228353e-04,8.507255e-01
336,8.171171e-01,-4.345032e-04,-3.228345e-04,8.522415e-01
337,8.172941e-01,-4.345271e-04,-3.228342e-04,8.537555e-01
338,8.174714e-01,-4.345512e-04,-3.228340e-04,8.552680e-01
339,8.175746e-01,-4.345651e-04,-3.228339e-04,8.567794e-01
340,8.175726e-01,-4.345643e-04,-3.228334e-04,8.582901e-01
341,8.174893e-01,-4.345521e-04,-3.228326e-04,8.598001e-01
342,8.173850e-01,-4.345371e-04,-3.228318e-04,8.613093e-01
343,8.173211e-01,-4.345280e-04,-3.228314e-04,8.628173e-01
344,8.173256e-01,-4.345284e-04,-3.228313e-04,8.643239e-01
