TimeStep,Temp,PotEnergy,TotEnergy,MeanSqDisp
0,9.990867e-02,-5.919215e-04,-5.782678e-04,2.738613e-03
1,9.963452e-02,-5.918824e-04,-5.782661e-04,5.474724e-03
2,9.917711e-02,-5.918171e-04,-5.782634e-04,8.205820e-03
3,9.853576e-02,-5.917256e-04,-5.782596e-04,1.092936e-02
4,9.770966e-02,-5.916079e-04,-5.782547e-04,1.364279e-02
5,9.669793e-02,-5.914637e-04,-5.782487e-04,1.634347e-02
6,9.549982e-02,-5.912930e-04,-5.782418e-04,1.902876e-02
7,9.411481e-02,-5.910957e-04,-5.782338e-04,2.169591e-02
8,9.254290e-02,-5.908720e-04,-5.782249e-04,2.434214e-02
9,9.078476e-02,-5.906218e-04,-5.782150e-04,2.696456e-02
10,8.884210e-02,-5.903456e-04,-5.782043e-04,2.956025e-02
11,8.671787e-02,-5.900438e-04,-5.781928e-04,3.212616e-02
12,8.441665e-02,-5.897174e-04,-5.781808e-04,3.465921e-02
13,8.194495e-02,-5.893672e-04,-5.781685e-04,3.715622e-02
14,7.931154e-02,-5.889948e-04,-5.781559e-04,3.961396e-02
15,7.652784e-02,-5.886016e-04,-5.781432e-04,4.202915e-02
16,7.360810e-02,-5.881900e-04,-5.781305e-04,4.439848e-02
17,7.056971e-02,-5.877622e-04,-5.781180e-04,4.671862e-02
18,6.743327e-02,-5.873214e-04,-5.781058e-04,4.898627e-02
19,6.422263e-02,-5.868707e-04,-5.780940e-04,5.119816e-02
20,6.096470e-02,-5.864139e-04,-5.780824e-04,5.335112e-02
21,5.768923e-02,-5.859551e-04,-5.780712e-04,5.544208e-02
22,5.442820e-02,-5.854987e-04,-5.780604e-04,5.746814e-02
23,5.121524e-02,-5.850492e-04,-5.780500e-04,5.942661e-02
24,4.808475e-02,-5.846114e-04,-5.780401e-04,6.131502e-02
25,4.507098e-02,-5.841901e-04,-5.780307e-04,6.313122e-02
26,4.220697e-02,-5.837898e-04,-5.780217e-04,6.487335e-02
27,3.952358e-02,-5.834147e-04,-5.780133e-04,6.653992e-02
28,3.704844e-02,-5.830685e-04,-5.780054e-04,6.812985e-02
29,3.480519e-02,-5.827545e-04,-5.779980e-04,6.964241e-02
30,3.281272e-02,-5.824753e-04,-5.779911e-04,7.107734e-02
31,3.108478e-02,-5.822328e-04,-5.779847e-04,7.243476e-02
32,2.962965e-02,-5.820280e-04,-5.779788e-04,7.371524e-02
33,2.845023e-02,-5.818614e-04,-5.779734e-04,7.491971e-02
34,2.754415e-02,-5.817327e-04,-5.779685e-04,7.604953e-02
35,2.690418e-02,-5.816408e-04,-5.779640e-04,7.710638e-02
36,2.651878e-02,-5.815842e-04,-5.779600e-04,7.809228e-02
37,2.637269e-02,-5.815606e-04,-5.779565e-04,7.900954e-02
38,2.644763e-02,-5.815677e-04,-5.779533e-04,7.986070e-02
39,2.672300e-02,-5.816025e-04,-5.779505e-04,8.064855e-02
40,2.717662e-02,-5.816621e-04,-5.779481e-04,8.137600e-02
41,2.778534e-02,-5.817432e-04,-5.779460e-04,8.204613e-02
42,2.852572e-02,-5.818427e-04,-5.779443e-04,8.266208e-02
43,2.937451e-02,-5.819573e-04,-5.779429e-04,8.322705e-02
44,3.030915e-02,-5.820839e-04,-5.779418e-04,8.374426e-02
45,3.130814e-02,-5.822196e-04,-5.779410e-04,8.421690e-02
46,3.235135e-02,-5.823615e-04,-5.779403e-04,8.464814e-02
47,3.342025e-02,-5.825072e-04,-5.779399e-04,8.504103e-02
48,3.449803e-02,-5.826543e-04,-5.779397e-04,8.539857e-02
49,3.556975e-02,-5.828007e-04,-5.779397e-04,8.572362e-02
50,3.662236e-02,-5.829447e-04,-5.779399e-04,8.601890e-02
51,3.764465e-02,-5.830848e-04,-5.779402e-04,8.628701e-02
52,3.862730e-02,-5.832195e-04,-5.779406e-04,8.653037e-02
53,3.956270e-02,-5.833479e-04,-5.779412e-04,8.675123e-02
54,4.044495e-02,-5.834692e-04,-5.779419e-04,8.695171e-02
55,4.126969e-02,-5.835827e-04,-5.779427e-04,8.713372e-02
56,4.203399e-02,-5.836881e-04,-5.779436e-04,8.729902e-02
57,4.273624e-02,-5.837850e-04,-5.779446e-04,8.744919e-02
58,4.337601e-02,-5.838735e-04,-5.779457e-04,8.758566e-02
59,4.395390e-02,-5.839536e-04,-5.779468e-04,8.770969e-02
60,4.447143e-02,-5.840256e-04,-5.779480e-04,8.782238e-02
61,4.493092e-02,-5.840896e-04,-5.779493e-04,8.792471e-02
62,4.533534e-02,-5.841462e-04,-5.779506e-04,8.801751e-02
63,4.568823e-02,-5.841957e-04,-5.779519e-04,8.810149e-02
64,4.599354e-02,-5.842388e-04,-5.779533e-04,8.817723e-02
65,4.625559e-02,-5.842761e-04,-5.779547e-04,8.824523e-02
66,4.647891e-02,-5.843080e-04,-5.779561e-04,8.830588e-02
67,4.666818e-02,-5.843353e-04,-5.779576e-04,8.835950e-02
68,4.682813e-02,-5.843586e-04,-5.779590e-04,8.840634e-02
69,4.696349e-02,-5.843786e-04,-5.779605e-04,8.844658e-02
70,4.707888e-02,-5.843958e-04,-5.779619e-04,8.848037e-02
71,4.717874e-02,-5.844110e-04,-5.779635e-04,8.850780e-02
72,4.726733e-02,-5.844246e-04,-5.779650e-04,8.852894e-02
73,4.734861e-02,-5.844373e-04,-5.779665e-04,8.854385e-02
74,4.742622e-02,-5.844494e-04,-5.779681e-04,8.855258e-02
75,4.750346e-02,-5.844615e-04,-5.779696e-04,8.855516e-02
76,4.758324e-02,-5.844740e-04,-5.779712e-04,8.855163e-02
77,4.766808e-02,-5.844872e-04,-5.779728e-04,8.854205e-02
78,4.776010e-02,-5.845014e-04,-5.779744e-04,8.852649e-02
79,4.786098e-02,-5.845168e-04,-5.779760e-04,8.850503e-02
80,4.797203e-02,-5.845336e-04,-5.779776e-04,8.847778e-02
81,4.809415e-02,-5.845519e-04,-5.779793e-04,8.844487e-02
82,4.822788e-02,-5.845718e-04,-5.779809e-04,8.840646e-02
83,4.837342e-02,-5.845934e-04,-5.779826e-04,8.836273e-02
84,4.853065e-02,-5.846165e-04,-5.779842e-04,8.831389e-02
85,4.869919e-02,-5.846412e-04,-5.779859e-04,8.826018e-02
86,4.887840e-02,-5.846674e-04,-5.779876e-04,8.820185e-02
87,4.906745e-02,-5.846949e-04,-5.779893e-04,8.813920e-02
88,4.926534e-02,-5.847236e-04,-5.779909e-04,8.807253e-02
89,4.947092e-02,-5.847533e-04,-5.779925e-04,8.800216e-02
90,4.968298e-02,-5.847838e-04,-5.779941e-04,8.792844e-02
91,4.990020e-02,-5.848151e-04,-5.779956e-04,8.785172e-02
92,5.012125e-02,-5.848468e-04,-5.779972e-04,8.777238e-02
93,5.034475e-02,-5.848789e-04,-5.779987e-04,8.769077e-02
94,5.056937e-02,-5.849110e-04,-5.780001e-04,8.760730e-02
95,5.079377e-02,-5.849431e-04,-5.780015e-04,8.752235e-02
96,5.101667e-02,-5.849750e-04,-5.780029e-04,8.743630e-02
97,5.123682e-02,-5.850064e-04,-5.780043e-04,8.734954e-02
98,5.145308e-02,-5.850373e-04,-5.780056e-04,8.726244e-02
99,5.166436e-02,-5.850675e-04,-5.780070e-04,8.717539e-02
100,1.002223e-01,-5.850995e-04,-5.714030e-04,8.707555e-02
101,1.003090e-01,-5.851128e-04,-5.714044e-04,8.701813e-02
102,1.002604e-01,-5.851072e-04,-5.714055e-04,8.700329e-02
103,1.000782e-01,-5.850832e-04,-5.714063e-04,8.703089e-02
104,9.976519e-02,-5.850410e-04,-5.714069e-04,8.710042e-02
105,9.932513e-02,-5.849811e-04,-5.714072e-04,8.721107e-02
106,9.876307e-02,-5.849044e-04,-5.714072e-04,8.736173e-02
107,9.808512e-02,-5.848115e-04,-5.714070e-04,8.755097e-02
108,9.729848e-02,-5.847036e-04,-5.714066e-04,8.777711e-02
109,9.641139e-02,-5.845817e-04,-5.714059e-04,8.803822e-02
110,9.543307e-02,-5.844471e-04,-5.714050e-04,8.833215e-02
111,9.437367e-02,-5.843012e-04,-5.714040e-04,8.865656e-02
112,9.324415e-02,-5.841457e-04,-5.714028e-04,8.900896e-02
113,9.205611e-02,-5.839820e-04,-5.714015e-04,8.938673e-02
114,9.082172e-02,-5.838120e-04,-5.714001e-04,8.978717e-02
115,8.955345e-02,-5.836372e-04,-5.713987e-04,9.020751e-02
116,8.826397e-02,-5.834595e-04,-5.713971e-04,9.064499e-02
117,8.696584e-02,-5.832805e-04,-5.713956e-04,9.109682e-02
118,8.567140e-02,-5.831020e-04,-5.713940e-04,9.156028e-02
119,8.439251e-02,-5.829256e-04,-5.713923e-04,9.203270e-02
120,8.314041e-02,-5.827527e-04,-5.713906e-04,9.251152e-02
121,8.192554e-02,-5.825849e-04,-5.713889e-04,9.299427e-02
122,8.075741e-02,-5.824236e-04,-5.713871e-04,9.347863e-02
123,7.964448e-02,-5.822698e-04,-5.713854e-04,9.396243e-02
124,7.859406e-02,-5.821245e-04,-5.713837e-04,9.444365e-02
125,7.761226e-02,-5.819885e-04,-5.713819e-04,9.492045e-02
126,7.670389e-02,-5.818626e-04,-5.713802e-04,9.539118e-02
127,7.587249e-02,-5.817473e-04,-5.713784e-04,9.585433e-02
128,7.512028e-02,-5.816429e-04,-5.713768e-04,9.630860e-02
129,7.444824e-02,-5.815494e-04,-5.713752e-04,9.675286e-02
130,7.385615e-02,-5.814670e-04,-5.713736e-04,9.718616e-02
131,7.334263e-02,-5.813953e-04,-5.713721e-04,9.760772e-02
132,7.290534e-02,-5.813340e-04,-5.713707e-04,9.801688e-02
133,7.254101e-02,-5.812828e-04,-5.713693e-04,9.841319e-02
134,7.224563e-02,-5.812411e-04,-5.713679e-04,9.879628e-02
135,7.201457e-02,-5.812082e-04,-5.713665e-04,9.916594e-02
136,7.184275e-02,-5.811834e-04,-5.713653e-04,9.952207e-02
137,7.172474e-02,-5.811661e-04,-5.713641e-04,9.986464e-02
138,7.165494e-02,-5.811554e-04,-5.713629e-04,1.001938e-01
139,7.162766e-02,-5.811506e-04,-5.713619e-04,1.005096e-01
140,7.163729e-02,-5.811509e-04,-5.713608e-04,1.008123e-01
141,7.167837e-02,-5.811555e-04,-5.713598e-04,1.011021e-01
142,7.174566e-02,-5.811638e-04,-5.713589e-04,1.013795e-01
143,7.183426e-02,-5.811750e-04,-5.713580e-04,1.016447e-01
144,7.193960e-02,-5.811886e-04,-5.713572e-04,1.018981e-01
145,7.205752e-02,-5.812039e-04,-5.713564e-04,1.021400e-01
146,7.218428e-02,-5.812205e-04,-5.713557e-04,1.023709e-01
147,7.231658e-02,-5.812378e-04,-5.713549e-04,1.025910e-01
148,7.245159e-02,-5.812556e-04,-5.713542e-04,1.028009e-01
149,7.258690e-02,-5.812735e-04,-5.713536e-04,1.030008e-01
150,7.272059e-02,-5.812911e-04,-5.713530e-04,1.031912e-01
151,7.285118e-02,-5.813084e-04,-5.713524e-04,1.033723e-01
152,7.297761e-02,-5.813251e-04,-5.713519e-04,1.035444e-01
153,7.309925e-02,-5.813413e-04,-5.713514e-04,1.037079e-01
154,7.321584e-02,-5.813569e-04,-5.713511e-04,1.038631e-01
155,7.332748e-02,-5.813718e-04,-5.713507e-04,1.040102e-01
156,7.343454e-02,-5.813862e-04,-5.713505e-04,1.041494e-01
157,7.353765e-02,-5.814000e-04,-5.713502e-04,1.042810e-01
158,7.363764e-02,-5.814135e-04,-5.713501e-04,1.044053e-01
159,7.373545e-02,-5.814268e-04,-5.713500e-04,1.045223e-01
160,7.383215e-02,-5.814399e-04,-5.713499e-04,1.046324e-01
161,7.392880e-02,-5.814530e-04,-5.713498e-04,1.047357e-01
162,7.402648e-02,-5.814663e-04,-5.713497e-04,1.048323e-01
163,7.412620e-02,-5.814798e-04,-5.713496e-04,1.049226e-01
164,7.422888e-02,-5.814938e-04,-5.713496e-04,1.050066e-01
165,7.433533e-02,-5.815085e-04,-5.713497e-04,1.050845e-01
166,7.444620e-02,-5.815237e-04,-5.713497e-04,1.051566e-01
167,7.456199e-02,-5.815396e-04,-5.713498e-04,1.052230e-01
168,7.468301e-02,-5.815563e-04,-5.713500e-04,1.052839e-01
169,7.480941e-02,-5.815737e-04,-5.713501e-04,1.053396e-01
170,7.494116e-02,-5.815919e-04,-5.713503e-04,1.053903e-01
171,7.507807e-02,-5.816109e-04,-5.713506e-04,1.054361e-01
172,7.521979e-02,-5.816306e-04,-5.713509e-04,1.054773e-01
173,7.536587e-02,-5.816509e-04,-5.713513e-04,1.055142e-01
174,7.551570e-02,-5.816717e-04,-5.713516e-04,1.055470e-01
175,7.566860e-02,-5.816930e-04,-5.713520e-04,1.055759e-01
176,7.582379e-02,-5.817146e-04,-5.713524e-04,1.056012e-01
177,7.598040e-02,-5.817364e-04,-5.713528e-04,1.056232e-01
178,7.613750e-02,-5.817583e-04,-5.713532e-04,1.056421e-01
179,7.629405e-02,-5.817801e-04,-5.713536e-04,1.056581e-01
180,7.644895e-02,-5.818018e-04,-5.713541e-04,1.056715e-01
181,7.660105e-02,-5.818232e-04,-5.713547e-04,1.056827e-01
182,7.674914e-02,-5.818440e-04,-5.713553e-04,1.056917e-01
183,7.689196e-02,-5.818641e-04,-5.713560e-04,1.056989e-01
184,7.702828e-02,-5.818834e-04,-5.713566e-04,1.057045e-01
185,7.715693e-02,-5.819017e-04,-5.713573e-04,1.057086e-01
186,7.727679e-02,-5.819187e-04,-5.713579e-04,1.057116e-01
187,7.738693e-02,-5.819344e-04,-5.713586e-04,1.057136e-01
188,7.748657e-02,-5.819487e-04,-5.713593e-04,1.057147e-01
189,7.757517e-02,-5.819615e-04,-5.713600e-04,1.057151e-01
190,7.765245e-02,-5.819727e-04,-5.713606e-04,1.057149e-01
191,7.771841e-02,-5.819823e-04,-5.713612e-04,1.057143e-01
192,7.777334e-02,-5.819904e-04,-5.713618e-04,1.057133e-01
193,7.781781e-02,-5.819971e-04,-5.713624e-04,1.057120e-01
194,7.785267e-02,-5.820024e-04,-5.713629e-04,1.057104e-01
195,7.787905e-02,-5.820066e-04,-5.713635e-04,1.057085e-01
196,7.789828e-02,-5.820098e-04,-5.713641e-04,1.057064e-01
197,7.791191e-02,-5.820123e-04,-5.713647e-04,1.057040e-01
198,7.792163e-02,-5.820142e-04,-5.713653e-04,1.057014e-01
199,7.792923e-02,-5.820159e-04,-5.713660e-04,1.056985e-01
200,9.997338e-02,-5.820130e-04,-5.683505e-04,1.057026e-01
201,9.987914e-02,-5.820007e-04,-5.683510e-04,1.057221e-01
202,9.972059e-02,-5.819795e-04,-5.683515e-04,1.057565e-01
203,9.950176e-02,-5.819500e-04,-5.683519e-04,1.058057e-01
204,9.922726e-02,-5.819127e-04,-5.683522e-04,1.058692e-01
205,9.890215e-02,-5.818685e-04,-5.683523e-04,1.059464e-01
206,9.853189e-02,-5.818180e-04,-5.683524e-04,1.060367e-01
207,9.812215e-02,-5.817620e-04,-5.683524e-04,1.061394e-01
208,9.767874e-02,-5.817013e-04,-5.683524e-04,1.062538e-01
209,9.720752e-02,-5.816368e-04,-5.683523e-04,1.063791e-01
210,9.671431e-02,-5.815693e-04,-5.683522e-04,1.065143e-01
211,9.620481e-02,-5.814995e-04,-5.683520e-04,1.066587e-01
212,9.568458e-02,-5.814282e-04,-5.683518e-04,1.068112e-01
213,9.515890e-02,-5.813562e-04,-5.683516e-04,1.069711e-01
214,9.463282e-02,-5.812840e-04,-5.683513e-04,1.071372e-01
215,9.411101e-02,-5.812124e-04,-5.683510e-04,1.073089e-01
216,9.359780e-02,-5.811419e-04,-5.683507e-04,1.074851e-01
217,9.309710e-02,-5.810732e-04,-5.683503e-04,1.076649e-01
218,9.261240e-02,-5.810065e-04,-5.683500e-04,1.078477e-01
219,9.214674e-02,-5.809424e-04,-5.683495e-04,1.080325e-01
220,9.170274e-02,-5.808812e-04,-5.683490e-04,1.082185e-01
221,9.128256e-02,-5.808233e-04,-5.683484e-04,1.084052e-01
222,9.088799e-02,-5.807688e-04,-5.683479e-04,1.085918e-01
223,9.052044e-02,-5.807181e-04,-5.683474e-04,1.087776e-01
224,9.018101e-02,-5.806712e-04,-5.683469e-04,1.089622e-01
225,8.987051e-02,-5.806283e-04,-5.683464e-04,1.091450e-01
226,8.958953e-02,-5.805894e-04,-5.683460e-04,1.093255e-01
227,8.933844e-02,-5.805546e-04,-5.683455e-04,1.095034e-01
228,8.911741e-02,-5.805240e-04,-5.683450e-04,1.096782e-01
229,8.892637e-02,-5.804975e-04,-5.683447e-04,1.098497e-01
230,8.876505e-02,-5.804751e-04,-5.683443e-04,1.100176e-01
231,8.863288e-02,-5.804567e-04,-5.683439e-04,1.101817e-01
232,8.852897e-02,-5.804421e-04,-5.683436e-04,1.103418e-01
233,8.845211e-02,-5.804312e-04,-5.683432e-04,1.104978e-01
234,8.840071e-02,-5.804238e-04,-5.683428e-04,1.106497e-01
235,8.837281e-02,-5.804196e-04,-5.683424e-04,1.107974e-01
236,8.836612e-02,-5.804183e-04,-5.683420e-04,1.109410e-01
237,8.837806e-02,-5.804195e-04,-5.683416e-04,1.110805e-01
238,8.840583e-02,-5.804230e-04,-5.683413e-04,1.112159e-01
239,8.844649e-02,-5.804283e-04,-5.683410e-04,1.113475e-01
240,8.849708e-02,-5.804349e-04,-5.683408e-04,1.114753e-01
241,8.855465e-02,-5.804425e-04,-5.683405e-04,1.115994e-01
242,8.861640e-02,-5.804508e-04,-5.683403e-04,1.117200e-01
243,8.867974e-02,-5.804592e-04,-5.683401e-04,1.118373e-01
244,8.874235e-02,-5.804676e-04,-5.683399e-04,1.119513e-01
245,8.880228e-02,-5.804756e-04,-5.683397e-04,1.120623e-01
246,8.885795e-02,-5.804831e-04,-5.683396e-04,1.121704e-01
247,8.890820e-02,-5.804898e-04,-5.683394e-04,1.122756e-01
248,8.895234e-02,-5.804957e-04,-5.683393e-04,1.123781e-01
249,8.899009e-02,-5.805007e-04,-5.683392e-04,1.124780e-01
250,8.902160e-02,-5.805049e-04,-5.683390e-04,1.125754e-01
251,8.904740e-02,-5.805083e-04,-5.683389e-04,1.126703e-01
252,8.906836e-02,-5.805111e-04,-5.683388e-04,1.127627e-01
253,8.908561e-02,-5.805133e-04,-5.683387e-04,1.128527e-01
254,8.910048e-02,-5.805153e-04,-5.683387e-04,1.129403e-01
255,8.911438e-02,-5.805171e-04,-5.683386e-04,1.130256e-01
256,8.912872e-02,-5.805190e-04,-5.683385e-04,1.131085e-01
257,8.914485e-02,-5.805212e-04,-5.683385e-04,1.131892e-01
258,8.916389e-02,-5.805239e-04,-5.683386e-04,1.132675e-01
259,8.918675e-02,-5.805271e-04,-5.683386e-04,1.133436e-01
260,8.921400e-02,-5.805309e-04,-5.683388e-04,1.134174e-01
261,8.924591e-02,-5.805354e-04,-5.683389e-04,1.134891e-01
262,8.928242e-02,-5.805405e-04,-5.683390e-04,1.135587e-01
263,8.932324e-02,-5.805462e-04,-5.683392e-04,1.136262e-01
264,8.936785e-02,-5.805525e-04,-5.683393e-04,1.136918e-01
265,8.941563e-02,-5.805592e-04,-5.683395e-04,1.137554e-01
266,8.946591e-02,-5.805663e-04,-5.683397e-04,1.138172e-01
267,8.951805e-02,-5.805737e-04,-5.683400e-04,1.138773e-01
268,8.957147e-02,-5.805813e-04,-5.683403e-04,1.139358e-01
269,8.962569e-02,-5.805890e-04,-5.683406e-04,1.139927e-01
270,8.968031e-02,-5.805968e-04,-5.683409e-04,1.140482e-01
271,8.973503e-02,-5.806045e-04,-5.683412e-04,1.141023e-01
272,8.978960e-02,-5.806123e-04,-5.683415e-04,1.141551e-01
273,8.984380e-02,-5.806200e-04,-5.683418e-04,1.142068e-01
274,8.989743e-02,-5.806277e-04,-5.683421e-04,1.142574e-01
275,8.995028e-02,-5.806352e-04,-5.683424e-04,1.143071e-01
276,9.000213e-02,-5.806425e-04,-5.683427e-04,1.143558e-01
277,9.005276e-02,-5.806496e-04,-5.683429e-04,1.144037e-01
278,9.010196e-02,-5.806564e-04,-5.683429e-04,1.144509e-01
279,9.014956e-02,-5.806630e-04,-5.683430e-04,1.144974e-01
280,9.019541e-02,-5.806694e-04,-5.683431e-04,1.145434e-01
281,9.023946e-02,-5.806755e-04,-5.683433e-04,1.145888e-01
282,9.028172e-02,-5.806814e-04,-5.683434e-04,1.146338e-01
283,9.032232e-02,-5.806871e-04,-5.683435e-04,1.146785e-01
284,9.036142e-02,-5.806926e-04,-5.683437e-04,1.147228e-01
285,9.039930e-02,-5.806980e-04,-5.683438e-04,1.147668e-01
286,9.043623e-02,-5.807032e-04,-5.683440e-04,1.148107e-01
287,9.047254e-02,-5.807083e-04,-5.683442e-04,1.148544e-01
288,9.050852e-02,-5.807135e-04,-5.683444e-04,1.148980e-01
289,9.054441e-02,-5.807187e-04,-5.683447e-04,1.149416e-01
290,9.058039e-02,-5.807239e-04,-5.683450e-04,1.149851e-01
291,9.061651e-02,-5.807292e-04,-5.683453e-04,1.150288e-01
292,9.065274e-02,-5.807344e-04,-5.683457e-04,1.150725e-01
293,9.068895e-02,-5.807398e-04,-5.683460e-04,1.151164e-01
294,9.072488e-02,-5.807450e-04,-5.683464e-04,1.151605e-01
295,9.076020e-02,-5.807502e-04,-5.683468e-04,1.152048e-01
296,9.079454e-02,-5.807553e-04,-5.683471e-04,1.152495e-01
297,9.082748e-02,-5.807602e-04,-5.683475e-04,1.152946e-01
298,9.085858e-02,-5.807648e-04,-5.683479e-04,1.153400e-01
299,9.088744e-02,-5.807692e-04,-5.683484e-04,1.153859e-01
300,9.091370e-02,-5.807733e-04,-5.683488e-04,1.154323e-01
301,9.093708e-02,-5.807770e-04,-5.683493e-04,1.154793e-01
302,9.095736e-02,-5.807802e-04,-5.683498e-04,1.155268e-01
303,9.097444e-02,-5.807830e-04,-5.683503e-04,1.155748e-01
304,9.098833e-02,-5.807854e-04,-5.683508e-04,1.156235e-01
305,9.099913e-02,-5.807874e-04,-5.683513e-04,1.156728e-01
306,9.100705e-02,-5.807890e-04,-5.683518e-04,1.157228e-01
307,9.101238e-02,-5.807903e-04,-5.683524e-04,1.157734e-01
308,9.101545e-02,-5.807912e-04,-5.683529e-04,1.158246e-01
309,9.101663e-02,-5.807919e-04,-5.683535e-04,1.158764e-01
310,9.101628e-02,-5.807925e-04,-5.683540e-04,1.159289e-01
311,9.101473e-02,-5.807928e-04,-5.683545e-04,1.159820e-01
312,9.101226e-02,-5.807929e-04,-5.683550e-04,1.160357e-01
313,9.100910e-02,-5.807930e-04,-5.683555e-04,1.160900e-01
314,9.100539e-02,-5.807930e-04,-5.683561e-04,1.161448e-01
315,9.100125e-02,-5.807930e-04,-5.683566e-04,1.162002e-01
316,9.099674e-02,-5.807929e-04,-5.683571e-04,1.162562e-01
317,9.099191e-02,-5.807927e-04,-5.683576e-04,1.163126e-01
318,9.098683e-02,-5.807925e-04,-5.683581e-04,1.163696e-01
319,9.098161e-02,-5.807924e-04,-5.683587e-04,1.164271e-01
320,9.097640e-02,-5.807922e-04,-5.683592e-04,1.164851e-01
321,9.097146e-02,-5.807921e-04,-5.683598e-04,1.165435e-01
322,9.096711e-02,-5.807922e-04,-5.683605e-04,1.166023e-01
323,9.096374e-02,-5.807924e-04,-5.683611e-04,1.166616e-01
324,9.096178e-02,-5.807928e-04,-5.683618e-04,1.167212e-01
325,9.096170e-02,-5.807934e-04,-5.683624e-04,1.167813e-01
326,9.096395e-02,-5.807944e-04,-5.683631e-04,1.168417e-01
327,9.096894e-02,-5.807959e-04,-5.683639e-04,1.169024e-01
328,9.097701e-02,-5.807977e-04,-5.683646e-04,1.169635e-01
329,9.098840e-02,-5.808000e-04,-5.683654e-04,1.170249e-01
330,9.100326e-02,-5.808028e-04,-5.683661e-04,1.170867e-01
331,9.102158e-02,-5.808060e-04,-5.683668e-04,1.171489e-01
332,9.104330e-02,-5.808096e-04,-5.683675e-04,1.172114e-01
333,9.106819e-02,-5.808138e-04,-5.683682e-04,1.172743e-01
334,9.109599e-02,-5.808183e-04,-5.683690e-04,1.173376e-01
335,9.112634e-02,-5.808232e-04,-5.683697e-04,1.174013e-01
336,9.115885e-02,-5.808283e-04,-5.683704e-04,1.174655e-01
337,9.119309e-02,-5.808336e-04,-5.683710e-04,1.175302e-01
338,9.122864e-02,-5.808391e-04,-5.683716e-04,1.175954e-01
339,9.126509e-02,-5.808447e-04,-5.683723e-04,1.176612e-01
340,9.130208e-02,-5.808504e-04,-5.683729e-04,1.177276e-01
341,9.133931e-02,-5.808560e-04,-5.683734e-04,1.177947e-01
342,9.137657e-02,-5.808617e-04,-5.683740e-04,1.178624e-01
343,9.141373e-02,-5.808673e-04,-5.683745e-04,1.179308e-01
344,9.145078e-02,-5.808729e-04,-5.683751e-04,1.180000e-01
